-620
-592
-528
-352
-336
-364
-336
-448
-592
-700
-816
-992
-1116
-1100
-1180
-1184
-972
-960
-720
-624
-444
-444
-480
-508
-704
-880
-972
-1068
-1196
-1292
-1296
-1424
-1568
-1628
-1600
-1484
-1196
-892
-704
-512
-300
-272
-316
-348
-480
-684
-844
-924
-1584
-1804
-1676
-684
1200
3204
4740
5332
5072
4340
3248
2212
1360
548
-208
-780
-1888
-2032
-1952
-1820
-1756
-1712
-1648
-1664
-1808
-1964
-2032
-2192
-2348
-2384
-2448
-2416
-2352
-2224
-2144
-2124
-2060
-1904
-1792
-1728
-1664
-1568
-1520
-1568
-1628
-1648
-1744
-1628
-1644
-2016
-2272
-2508
-2604
-2556
-2384
-2252
-2124
-1980
-1792
-1712
-1728
-1804
-1856
-2032
-2348
-2704
-3088
-3536
-3884
-4032
-4108
-4108
-3916
-3536
-3168
-2720
-2176
-1744
-1392
-1036
-700
-764
-748
-652
-700
-736
-720
-752
-812
-812
-732
-752
-732
-604
-608
-576
-592
-764
-592
-608
-620
-604
-732
-816
-816
-832
-876
-816
-704
-720
-700
-576
-704
-764
-780
-684
-748
-812
-800
-940
-1040
-1056
-1100
-1180
-1180
-1084
-1072
-1036
-992
-1120
-1024
-972
-880
-876
-832
-748
-816
-912
-992
-1148
-1356
-1484
-1536
-1644
-1088
-892
-672
-476
-176
4
16
4
0
-192
-384
-480
-652
-944
-1276
-1216
4288
5088
5300
5120
4432
3668
2852
2048
1332
768
164
-272
-512
-736
-908
-956
-1356
-1504
-1504
-1436
-1488
-1536
-1532
-1584
-1660
-1632
-1516
-1488
-1408
-1212
-1120
-1036
-860
-988
-844
-876
-796
-880
-972
-972
-1056
-1196
-1244
-1216
-1264
-1276
-1152
-1148
-944
-944
-960
-956
-940
-912
-1056
-1212
-1312
-1548
-1840
-2080
-2288
-2544
-2684
-2592
-1872
-1584
-1248
-784
-396
-44
256
356
416
500
436
324
308
304
244
244
368
356
560
788
960
1028
1092
1168
1060
964
944
800
672
624
560
432
212
208
240
288
512
640
704
788
900
848
836
896
784
692
660
596
208
132
100
196
244
384
432
416
480
544
464
400
432
308
212
180
-44
-28
32
164
176
192
288
244
116
68
128
144
228
432
480
516
416
276
368
352
448
388
292
192
-128
-128
976
2832
4580
5872
6384
5936
2676
2016
1444
992
580
340
80
-48
-28
-64
-60
16
32
-76
-188
-284
-1248
-1408
-1520
-1436
-1420
-1312
-1120
-1036
-896
-656
-556
-428
-240
-156
-172
-192
-716
-956
-1004
-1004
-1068
-1152
-1180
-1184
-1244
-1216
-1068
-1040
-988
-832
-752
-736
-912
-1040
-1196
-1376
-1500
-1760
-2060
-2268
-2380
-2480
-2428
-2188
-1964
-1660
-1228
-848
212
368
464
628
756
916
896
848
848
832
724
676
720
640
608
692
692
704
740
916
964
996
1072
980
932
948
900
768
660
660
544
436
244
160
320
420
544
560
592
692
656
596
640
624
516
484
500
388
224
148
100
84
176
192
144
144
240
228
276
384
368
272
192
176
-396
-428
-396
-160
16
244
372
384
420
532
500
468
516
496
416
324
592
1908
3524
4996
5984
6064
5492
4512
3408
2452
1712
960
368
-16
-364
-624
-700
-684
-672
-684
-604
-704
-848
-976
-1180
-1424
-1612
-1660
-1772
-1808
-1708
-1596
-1132
-992
-908
-720
-556
-384
-412
-448
-508
-668
-940
-1196
-1344
-1580
-1724
-1728
-1708
-1644
-1504
-1244
-1088
-960
-796
-800
-864
-944
-1148
-1500
-1852
-2160
-2576
-2908
-3040
-2960
-2556
-2172
-1644
-1184
-764
-336
-80
116
304
352
288
260
288
164
64
68
128
180
372
500
544
596
724
692
708
768
752
628
560
512
32
-48
-108
0
20
132
192
148
148
228
180
176
240
224
132
112
-140
-268
-208
-92
-80
-80
-28
-16
-96
-140
-124
-236
-332
-304
-352
-416
-188
-128
-76
-64
80
16
-48
-124
-224
-352
-380
-284
-268
-224
-108
-80
-76
-76
-60
20
96
228
112
-144
-144
724
2388
4148
5440
5764
5332
4516
1124
548
84
-140
-460
-636
-652
-704
-688
-576
-524
-572
-636
-672
-876
-1104
-1984
-2192
-2092
-2016
-1872
-1792
-1648
-1408
-1276
-1104
-880
-736
-672
-624
-588
-700
-1280
-1456
-1596
-1696
-1676
-1664
-1692
-1644
-1520
-1488
-1420
-1232
-1136
-1136
-1104
-1024
-1548
-1772
-2016
-2160
-2428
-2624
-2828
-3020
-3040
-2864
-2704
-2432
-2028
-1664
-1328
-928
-108
-60
96
288
304
308
352
320
180
100
100
32
48
176
224
224
452
496
548
580
752
708
624
576
448
244
112
52
-124
-224
-220
-240
-176
-128
-76
32
132
288
288
288
336
288
160
68
20
-124
-220
-220
-496
-528
-524
-384
-368
-332
-192
-192
-188
-112
-140
-256
-348
-400
-620
-812
-1072
-1100
-880
-652
-428
-316
-208
-92
-140
-176
-156
-236
-368
-444
-576
-812
1952
3200
4180
4672
4672
4052
3124
2240
1504
752
144
-256
-620
-928
-1072
-1104
-1420
-1504
-1612
-1628
-1760
-1856
-2016
-2256
-2412
-2444
-2528
-2524
-2384
-2272
-2176
-1980
-1100
-1184
-1468
-1616
-1600
-1596
-1548
-1568
-1664
-1756
-1776
-1920
-2032
-2028
-2076
-2140
-2172
-2288
-2144
-2144
-2016
-2064
-2112
-2108
-2188
-2352
-2512
-2668
-2944
-3200
-3324
-3488
-3184
-2992
-2736
-2428
-2016
-1596
-1356
-1164
-944
-864
-832
-716
-652
-672
-656
-540
-492
-492
-460
-268
-204
-144
-80
-204
-284
-320
-476
-604
-636
-700
-812
-828
-848
-896
-768
-604
-524
-444
-320
-284
-364
-444
-476
-656
-832
-908
-1036
-1184
-1228
-1184
-1116
-1036
-768
-672
-592
-476
-444
-492
-544
-604
-812
-1008
-1116
-1328
-1516
-1452
-1360
-1248
-1116
-976
-1004
-1024
-992
-1036
-1100
-1084
-1004
-1004
-940
-812
-1024
-1068
-1084
-944
-944
-896
-812
-972
-1260
-1196
-268
1488
3344
4644
5040
4660
1152
372
-144
-544
-960
-1292
-1452
-1484
-1548
-1504
-1372
-1372
-1388
-1360
-1424
-1612
-2480
-2656
-2752
-2800
-2672
-2592
-2544
-2364
-2160
-2028
-1856
-1628
-1520
-1468
-1376
-1408
-2128
-2300
-2476
-2512
-2572
-2496
-2508
-2464
-2348
-2224
-2160
-2064
-1904
-1900
-1904
-1852
-2368
-2576
-2768
-2860
-3116
-3372
-3564
-3788
-3904
-3820
-3664
-3468
-3136
-2688
-2320
-1920
-1004
-1020
-832
-720
-640
-700
-732
-672
-732
-748
-652
-576
-544
-444
-272
-208
100
132
144
132
240
224
112
-12
-76
-268
-396
-400
-448
-524
-496
-364
-124
-80
-44
132
240
336
336
212
112
84
-76
-236
-272
-352
-448
-444
-348
-336
-188
32
132
228
336
356
256
164
132
16
-60
-44
-128
-192
-300
-332
-444
-592
-732
-720
-656
-556
-332
4
292
496
672
864
912
832
720
644
512
260
4
-348
-620
-144
1488
3476
5140
5904
5808
5120
4256
3264
2448
1744
1124
496
64
-108
-268
-364
-320
-316
-416
-496
-544
-752
-960
-1088
-1536
-1532
-1472
-1232
-1072
-876
-608
-508
-384
-208
-108
-108
-124
-96
-236
-380
-1180
-1276
-1056
-880
-700
-496
-492
-476
-380
-432
-508
-544
-640
-860
-1056
-1212
-2268
-2464
-2592
-2512
-2444
-2252
-1952
-1712
-1420
-1040
-812
-576
-300
-80
16
96
240
212
368
548
692
788
964
1056
1028
1040
1140
1072
1012
1012
928
784
480
436
432
432
592
624
608
672
660
624
640
708
640
624
688
672
528
484
448
516
532
608
544
532
580
560
500
468
544
500
484
528
212
128
80
176
164
240
400
420
452
528
512
420
356
308
132
36
208
192
404
532
672
644
612
628
516
432
420
340
160
-112
-272
128
5840
6260
6132
5556
4772
3856
2916
2128
1504
836
324
20
-236
-416
-476
-428
-524
-576
-652
-604
-652
-668
-768
-976
-1132
-1152
-1248
-1276
-1180
-1120
-1084
-972
-652
-652
-540
-364
-348
-384
-396
-464
-624
-752
-816
-976
-1100
-1056
-1088
-1100
-956
-1036
-832
-796
-636
-652
-732
-832
-1072
-1436
-1756
-2016
-2332
-2528
-2560
-2560
-1712
-1456
-1180
-876
-524
-156
20
148
320
372
372
420
464
660
736
564
128
176
292
560
708
852
1024
996
992
1008
932
756
640
580
404
256
4
-76
100
196
372
448
516
656
628
608
628
592
452
340
276
80
-364
-432
-444
-432
-284
-144
-140
-108
20
36
64
148
192
180
208
276
-236
-380
-524
-528
-652
-624
-572
-528
-396
-172
-64
64
244
336
336
336
128
-32
-92
-192
-348
576
2320
4020
5104
5556
5364
4512
3572
2736
1940
1204
-364
-524
-588
-604
-444
-368
-416
-464
-524
-752
-1020
-1212
-1504
-1740
-1856
-1952
-1868
-1772
-1612
-1328
-1056
-752
-560
-492
-412
-352
-348
-316
-508
-1072
-1596
-1916
-2188
-2140
-1920
-1600
-1344
-1084
-764
-560
-496
-460
-400
-556
-768
-956
-1296
-1724
-3196
-3564
-3564
-3584
-3344
-3104
-2748
-2224
-1728
-1292
-832
-368
-128
32
196
180
-188
-284
-332
-304
-220
-44
20
128
336
480
564
688
832
804
784
820
272
112
-28
-12
-140
-220
-204
-288
-352
-284
-240
-220
-108
48
96
180
292
180
276
352
372
260
128
48
-144
-316
-384
-476
-544
-528
-444
-460
-268
-220
-128
-28
208
340
320
244
160
-92
-352
-556
-800
-992
-1020
-896
-304
-176
-92
128
308
512
580
532
480
452
224
-172
-416
-48
1360
3204
4800
4100
3348
2772
1972
1300
832
400
0
-224
-304
-444
-476
-384
-416
-496
-1212
-1552
-1600
-1760
-1776
-1872
-1900
-1808
-1744
-1676
-1488
-1232
-1116
-956
-736
-656
-704
-844
-1008
-1148
-1276
-1340
-1520
-1676
-1680
-1712
-1728
-1644
-1500
-1436
-1312
-1116
-1040
-1088
-1152
-1116
-1276
-1500
-1728
-2124
-2544
-2864
-3184
-3408
-3404
-3264
-3068
-2748
-1360
-1120
-748
-396
-108
36
116
164
20
-92
-124
-256
-352
-364
-384
-444
-332
-288
-208
-144
64
144
116
80
100
-16
-124
-156
-320
-448
-492
-556
-768
-768
-748
-576
-448
-268
-188
-192
-176
-144
-268
-396
-448
-624
-752
-800
-1024
-1020
-940
-748
-700
-656
-560
-592
-672
-704
-672
-752
-780
-720
-828
-880
-1280
-1504
-1440
-1452
-1280
-1180
-1024
-796
-652
-544
-412
-336
-384
-412
-368
-476
-956
-1244
-1440
-1148
240
2196
3796
4820
5056
4416
3428
2500
1616
768
84
-400
-1440
-1500
-1500
-1324
-1260
-1184
-1164
-1344
-1580
-1756
-2044
-2332
-2512
-2652
-2768
-2752
-2332
-2256
-1996
-1712
-1500
-1404
-1324
-1292
-1436
-1612
-1728
-2012
-2256
-2400
-2528
-2656
-2524
-2428
-2288
-2144
-1852
-1680
-1596
-1500
-1472
-1616
-1772
-1900
-2204
-2524
-2800
-2992
-4156
-4300
-4288
-4044
-3664
-3132
-2620
-2188
-1728
-1276
-1008
-816
-624
-668
-704
-752
-1280
-1328
-1292
-1100
-1004
-864
-640
-464
-332
-160
-12
4
32
116
0
-144
-956
-1228
-1068
-908
-1020
-1244
-1280
-1164
-1068
-992
-812
-620
-528
-428
-284
-284
-496
-636
-748
-832
-896
-940
-1100
-1212
-1200
-1280
-1244
-1132
-1056
-1004
-892
-720
-812
-880
-940
-860
-876
-860
-688
-588
-780
-1152
-1548
-1808
-1884
-1904
-1968
-1920
-1196
-1052
-764
-480
-272
-220
-192
-240
-460
-652
-768
-1008
-1228
-1488
-1760
-1440
4288
4820
4804
4340
3652
2736
1840
1092
400
-252
-752
-1072
-1388
-1568
-1596
-1664
-1952
-2016
-2096
-2080
-2124
-2096
-2188
-2256
-2224
-2220
-2252
-2176
-2016
-1948
-1868
-1680
-1408
-1372
-1308
-1136
-1116
-1116
-1116
-1308
-1472
-1580
-1696
-1824
-1868
-1804
-1856
-1840
-1660
-1696
-1500
-1344
-1200
-1216
-1260
-1292
-1520
-1792
-2060
-2384
-2752
-3004
-3072
-3136
-2144
-1760
-1372
-972
-432
-16
224
400
576
532
464
452
336
180
208
384
-44
-64
-32
192
372
644
820
864
900
1008
932
848
800
676
452
288
-124
-220
-124
52
208
304
496
624
656
720
816
756
720
756
720
560
148
80
48
16
144
160
180
276
356
340
384
480
416
352
340
256
160
180
160
228
244
288
176
64
-28
-124
-208
-176
0
84
224
448
676
672
672
788
752
676
660
432
52
-96
580
2192
4064
5600
6164
5940
2752
1988
1508
1060
628
228
-28
-96
-208
-240
-172
-140
-208
-268
-320
-528
-1180
-1308
-1376
-1376
-1248
-1132
-1088
-1004
-828
-764
-656
-476
-380
-348
-268
-160
-540
-784
-988
-956
-992
-924
-816
-800
-764
-640
-640
-620
-512
-492
-588
-640
-1148
-1360
-1440
-1488
-1664
-1868
-1996
-2128
-2272
-2284
-2080
-1900
-1600
-1216
-860
-588
148
212
272
304
500
512
532
596
612
560
560
640
608
628
768
944
976
980
1040
1024
912
800
752
688
560
480
436
448
340
304
336
420
388
432
528
656
640
644
660
740
708
644
612
624
564
484
432
452
384
304
164
196
148
176
324
400
432
484
544
452
388
420
356
292
48
-128
-64
-128
-96
-220
-288
-208
-156
-64
100
292
368
448
592
532
-208
-252
-300
640
2384
4260
5728
6180
5824
5056
4052
3056
2224
1540
864
356
-508
-636
-512
-364
-224
-220
-288
-364
-604
-860
-1084
-1344
-1628
-1772
-1776
-1808
-1424
-1264
-1072
-880
-556
-352
-288
-236
-172
-332
-524
-672
-896
-1180
-1372
-1484
-1724
-1696
-1628
-1420
-1200
-928
-720
-636
-560
-460
-528
-640
-732
-992
-1372
-1744
-3120
-3308
-3244
-3024
-2768
-2400
-1920
-1456
-1084
-684
-256
-44
132
336
400
368
208
36
160
132
240
228
240
336
388
372
420
544
528
544
624
576
336
256
180
164
164
208
84
-32
-32
-92
-188
-208
-144
-192
-208
-96
-16
4
36
224
276
340
420
352
272
228
100
-108
-240
-300
-444
-528
-604
-608
-400
-192
0
48
68
132
16
-128
-220
-364
-492
-512
-428
-432
-236
-208
-160
-112
96
208
208
224
304
112
-192
-76
976
2704
4420
5600
3668
2804
2020
1460
836
388
0
-364
-556
-572
-620
-592
-460
-384
-384
-368
-1116
-1404
-1548
-1612
-1804
-1920
-1920
-1916
-1904
-1788
-1568
-1408
-1212
-944
-796
-672
-512
-736
-720
-860
-940
-1200
-1472
-1648
-1820
-1952
-1980
-1904
-1888
-1792
-1584
-1424
-944
-924
-912
-944
-1056
-1212
-1584
-2000
-2352
-2732
-3052
-3180
-3100
-2960
-2668
-2192
-700
-396
-92
288
516
692
836
740
592
496
288
68
-48
-96
-220
-268
-28
0
212
468
688
788
868
976
896
800
736
528
260
80
-112
-336
-544
-480
-384
-268
20
208
292
420
576
532
500
528
400
292
224
96
-448
-556
-620
-540
-508
-384
-364
-396
-380
-272
-224
-140
36
36
16
208
-736
-1020
-1120
-1008
-908
-732
-444
-236
-108
64
240
256
260
336
256
176
-688
-976
-428
752
2756
4352
5328
5536
4948
3984
3040
2228
1396
720
244
-224
-992
-1056
-1088
-1084
-1068
-1020
-1152
-1328
-1452
-1660
-1868
-1984
-2032
-2144
-2160
-2060
-1792
-1696
-1580
-1312
-1184
-1084
-992
-1100
-1244
-1356
-1552
-1792
-1964
-2076
-2252
-2352
-2352
-2364
-2156
-1932
-1724
-1612
-1516
-1392
-1468
-1564
-1632
-1824
-2108
-2364
-2620
-2976
-3600
-3568
-3440
-3216
-2752
-2336
-2012
-1676
-1308
-1120
-988
-848
-848
-908
-892
-896
-880
-832
-768
-556
-352
-124
36
100
196
304
240
144
128
-16
-236
-380
-1056
-1180
-1152
-1020
-960
-860
-672
-556
-508
-428
-272
-272
-268
-204
-272
-412
-1004
-1232
-1164
-1196
-1088
-1088
-1100
-1004
-956
-944
-880
-768
-780
-780
-688
-748
-1084
-1164
-1184
-1184
-1148
-1056
-1148
-1216
-1216
-1292
-1420
-1504
-1472
-1456
-1360
-1132
-752
-720
-704
-556
-572
-588
-608
-768
-924
-1008
-1296
-1660
-1388
64
1924
3632
4288
3360
2196
1284
576
-92
-608
-928
-1260
-1440
-1456
-1456
-1500
-1488
-1436
-1548
-2092
-2240
-2384
-2476
-2496
-2540
-2640
-2668
-2560
-2508
-2412
-2208
-2032
-1920
-1776
-1596
-1440
-1520
-1632
-1664
-1804
-1920
-2096
-2336
-2528
-2576
-2668
-2668
-2540
-2432
-2320
-2160
-1852
-1888
-1840
-1772
-1916
-2144
-2444
-2844
-3324
-3712
-3964
-4144
-4172
-3920
-3616
-3260
-1616
-1408
-972
-748
-428
-336
-316
-284
-400
-608
-768
-844
-976
-1052
-976
-960
-636
-556
-460
-316
-172
4
-32
-124
-188
-352
-604
-784
-892
-1072
-1184
-1152
-1072
-976
-848
-588
-448
-300
-128
-128
-144
-144
-272
-492
-672
-816
-1052
-1228
-1356
-1388
-1184
-960
-748
-624
-476
-300
-304
-348
-320
-396
-528
-604
-592
-700
-928
-992
-1024
-1024
-912
-880
-912
-832
-608
-448
-224
64
208
272
384
420
-44
-188
-192
-32
-60
-688
-748
260
2128
4032
5280
5732
5508
4736
3792
2948
544
100
-124
-188
-316
-368
-332
-380
-512
-624
-700
-896
-1072
-1136
-1280
-1376
-1356
-1424
-1184
-1072
-784
-668
-560
-428
-368
-400
-444
-464
-640
-796
-860
-1024
-1340
-1356
-1308
-1200
-1040
-832
-764
-700
-556
-496
-540
-572
-576
-720
-876
-972
-1932
-2144
-2320
-2320
-2416
-2412
-2256
-2144
-1920
-1536
-1196
-880
-508
-192
-16
164
372
292
400
532
612
628
688
768
736
736
816
768
752
816
848
788
736
708
708
688
816
820
756
740
752
612
516
516
400
368
404
420
532
548
548
672
756
912
912
816
772
692
548
464
436
320
240
272
180
180
240
420
432
420
480
464
452
528
544
448
356
340
196
48
-412
-416
-144
36
356
512
640
816
800
772
804
756
612
512
464
212
1140
2660
4164
5348
6132
6064
5248
4272
3412
2496
1760
1172
656
164
-112
-192
-320
-336
-352
-224
-256
-316
-428
-672
-908
-1036
-1244
-1392
-1408
-1420
-1392
-1296
-832
-764
-572
-352
-208
-160
-108
-160
-384
-604
-748
-992
-1184
-1248
-1344
-1424
-1184
-1100
-988
-892
-608
-544
-492
-476
-556
-784
-1036
-1276
-1680
-2064
-2320
-2588
-2640
-2416
-2156
-1728
-1248
-732
-368
-60
260
436
484
548
640
592
560
592
368
356
404
624
708
848
1024
1024
1024
1060
1024
932
880
848
688
576
468
64
-32
-44
112
180
288
484
532
608
740
784
752
740
788
676
304
212
160
132
196
224
144
112
176
100
48
64
48
-32
-76
-32
4
16
-12
84
80
100
32
-188
-332
-316
-332
-256
-76
52
116
208
244
176
256
404
436
404
340
68
52
1088
2932
4564
5684
6048
5536
4580
1408
864
420
48
-172
-416
-528
-512
-508
-556
-576
-544
-672
-812
-928
-1168
-1840
-1904
-1932
-1804
-1660
-1376
-1232
-1072
-876
-732
-652
-556
-448
-528
-624
-604
-684
-924
-1196
-1404
-1552
-1744
-1856
-1852
-1740
-1664
-1520
-1328
-1072
-956
-800
-656
-512
-576
-720
-912
-1152
-1548
-2016
-2476
-2828
-3132
-3308
-3296
-3052
-2748
-2368
-1900
-1324
-832
-556
-236
128
304
404
512
436
308
256
144
-32
-144
-124
-188
4
100
212
356
576
800
852
896
960
816
644
512
336
100
-64
-144
96
4
240
596
784
800
804
832
688
516
384
160
-112
-304
-400
-588
-588
-540
-480
-416
-192
-44
16
100
244
260
304
368
244
32
-112
-332
-1120
-1148
-1088
-848
-588
-252
-12
128
304
484
500
484
512
416
288
160
468
1936
3440
4784
5552
5508
4960
4052
3092
2308
1616
948
436
132
-188
-384
-640
-800
-736
-796
-800
-988
-1200
-1376
-1612
-1836
-1916
-1920
-1968
-1932
-1740
-1600
-972
-860
-748
-624
-512
-416
-544
-704
-832
-1084
-1360
-1548
-1696
-1836
-1868
-1772
-1420
-1292
-1168
-896
-752
-636
-544
-652
-796
-928
-1280
-1644
-2000
-2412
-2844
-3132
-3104
-2956
-2540
-2064
-1532
-1072
-636
-252
-60
100
288
272
244
224
144
0
-144
-124
-60
4
240
368
416
516
640
612
592
628
516
416
356
240
-400
-492
-576
-544
-508
-364
-304
-304
-204
-92
-80
-28
96
80
32
52
-352
-464
-508
-416
-464
-496
-460
-496
-604
-620
-620
-720
-796
-764
-844
-892
-912
-1020
-896
-924
-848
-972
-1100
-1164
-1280
-1372
-1308
-1152
-1052
-896
-688
-624
-380
-380
-380
-368
-348
-348
-652
-1036
-924
160
1892
3572
4644
4788
4260
3440
324
-188
-592
-748
-988
-1116
-1148
-1228
-1232
-1180
-1280
-1392
-1520
-1724
-1996
-2236
-2828
-2912
-2764
-2560
-2348
-2172
-1936
-1680
-1568
-1456
-1296
-1292
-1312
-1312
-1440
-1388
-2508
-2684
-2780
-2784
-2588
-2416
-2268
-2044
-1792
-1692
-1564
-1376
-1408
-1500
-1596
-1772
-2896
-3184
-3436
-3552
-3712
-3772
-3808
-3788
-3580
-3232
-2924
-2540
-2080
-1756
-1468
-1180
-1184
-1264
-1276
-1164
-1164
-1116
-960
-860
-784
-604
-412
-332
-204
-28
-12
-12
-336
-560
-560
-688
-688
-816
-924
-940
-1024
-1104
-1040
-992
-992
-924
-768
-716
-448
-444
-428
-444
-432
-448
-652
-844
-940
-1120
-1216
-1216
-1200
-1216
-1180
-1052
-924
-908
-880
-720
-732
-732
-736
-908
-1068
-1132
-1308
-1376
-1360
-1404
-1488
-1532
-1580
-1644
-1488
-1260
-1024
-816
-604
-432
-448
-460
-272
-252
-540
-940
-1232
-1472
-1884
-1696
-752
800
2960
4580
5360
5300
4640
3568
2480
1568
608
-156
-736
-1244
-2044
-2032
-2028
-1888
-1772
-1616
-1628
-1708
-1772
-1852
-2044
-2220
-2284
-2432
-2528
-2496
-2288
-2192
-2032
-1788
-1632
-1520
-1392
-1440
-1536
-1612
-1728
-1932
-2096
-2140
-2268
-2332
-2364
-2412
-2204
-2096
-1904
-1868
-1840
-1788
-1888
-1996
-2092
-2224
-2448
-2656
-2812
-3072
-3504
-3472
-3324
-3072
-2656
-2172
-1808
-1456
-1072
-892
-752
-592
-512
-524
-496
-396
-380
-336
-284
-64
96
276
400
416
468
560
496
432
416
336
212
148
-96
-172
-60
112
176
240
372
452
420
420
484
420
388
432
372
244
32
-12
-12
0
160
176
212
308
320
260
256
324
260
196
244
192
-76
-140
-188
-112
-12
160
164
212
276
256
132
48
32
-124
-236
-188
16
116
244
484
548
612
724
676
644
660
624
500
320
64
-16
960
6224
6148
5780
5092
4160
3156
2304
1616
896
320
-12
-252
-428
-460
-348
-332
-288
-380
-460
-556
-592
-704
-908
-1068
-1116
-1232
-1296
-1228
-1168
-1116
-976
-796
-512
-508
-512
-416
-384
-336
-384
-560
-748
-864
-1068
-1180
-1168
-1180
-1212
-1148
-892
-896
-764
-572
-528
-540
-592
-768
-1088
-1420
-1692
-2080
-2368
-2480
-2540
-2496
-1388
-1040
-668
-316
192
480
736
960
1044
992
916
900
756
660
656
580
596
644
688
848
1008
1216
1220
1252
1296
1248
1092
976
928
752
612
580
288
256
260
448
516
592
736
724
752
816
816
736
688
672
560
484
228
112
256
356
468
468
484
580
516
452
420
352
224
164
180
132
320
292
288
260
324
288
116
-16
-12
-80
-64
68
144
148
208
336
420
496
788
976
1060
548
144
240
1492
3456
5108
6144
6372
5748
4720
3700
724
196
-80
-220
-400
-480
-428
-380
-396
-364
-284
-364
-464
-528
-688
-928
-1388
-1420
-1408
-1372
-1136
-992
-844
-656
-512
-460
-352
-240
-316
-396
-416
-528
-1068
-1184
-1276
-1280
-1292
-1200
-1244
-1216
-1104
-1024
-1020
-976
-880
-912
-940
-908
-1584
-1820
-2028
-2108
-2348
-2508
-2524
-2572
-2496
-2268
-2000
-1728
-1356
-924
-652
-384
256
224
400
544
672
708
736
800
724
676
720
720
640
612
644
564
468
448
432
388
468
484
432
416
484
432
368
416
384
352
384
448
372
340
320
432
484
576
560
452
356
288
128
4
20
-48
-140
-124
-208
-252
-192
-44
16
96
208
240
192
160
116
-92
-272
-368
-576
-736
-640
-608
-288
-112
208
324
432
548
592
532
500
496
320
96
-224
-448
4496
5264
5424
5104
4356
3556
2640
1844
1248
672
148
-192
-380
-560
-636
-544
-716
-832
-928
-908
-1036
-1196
-1292
-1516
-1664
-1692
-1712
-1772
-1696
-1552
-1456
-1324
-912
-956
-828
-700
-656
-764
-876
-976
-1212
-1408
-1484
-1580
-1648
-1596
-1504
-1472
-1100
-1036
-976
-940
-800
-800
-940
-1136
-1376
-1824
-2268
-2604
-2960
-3228
-3296
-3232
-2268
-1920
-1564
-1104
-624
-172
84
196
512
644
436
36
-140
-288
-352
-288
20
116
276
544
692
816
980
1012
928
852
784
580
416
324
116
-60
-384
-480
-304
-236
-28
48
100
228
256
240
304
320
256
224
256
148
-80
-140
-176
-172
-92
20
-12
-28
48
-48
-128
-144
-176
-220
-156
-28
-188
-256
-352
-300
-400
-412
-400
-416
-348
-160
-108
-32
96
128
84
176
276
256
148
48
-12
-224
-608
-560
672
2596
4288
5392
5652
5104
4116
3152
2356
1664
976
420
36
-192
-428
-572
-592
-544
-620
-684
-768
-848
-1088
-1308
-1468
-1536
-1788
-1916
-1872
-1804
-1692
-1504
-1280
-1184
-1056
-876
-832
-800
-748
-752
-1308
-1488
-1628
-1628
-1692
-1680
-1728
-1820
-1824
-1744
-1756
-1712
-1584
-1532
-1472
-1360
-2656
-2812
-2956
-3088
-3136
-3276
-3328
-3200
-3004
-2764
-2428
-1964
-1632
-1296
-924
-700
-352
-332
-348
-288
-256
-160
-236
-288
-268
-300
-380
-380
-288
-332
-336
-268
-352
-396
-412
-284
-284
-284
-256
-368
-492
-524
-576
-704
-768
-768
-844
-848
-876
-972
-812
-700
-592
-604
-624
-592
-684
-736
-736
-800
-924
-956
-912
-992
-1120
-1152
-1164
-1152
-1024
-908
-892
-848
-768
-864
-988
-1036
-1148
-1344
-1520
-1584
-1472
-1356
-1232
-976
-784
-604
-512
-544
-576
-544
-668
-768
-848
-1104
-1520
-1452
3876
4500
4676
4452
3648
2720
1920
1152
420
-160
-576
-1004
-1264
-1340
-1392
-1472
-1664
-1792
-1916
-2044
-2060
-2208
-2348
-2400
-2476
-2572
-2556
-2416
-2352
-2240
-2032
-1872
-1488
-1456
-1472
-1420
-1436
-1436
-1664
-1900
-2048
-2204
-2412
-2540
-2512
-2556
-2512
-2348
-2016
-1936
-1836
-1632
-1584
-1600
-1632
-1884
-2192
-2508
-2908
-3344
-3660
-3824
-3968
-3948
-2924
-2652
-2144
-1724
-1216
-896
-656
-416
-384
-432
-448
-556
-752
-864
-892
-1004
-828
-736
-620
-460
-172
32
80
116
192
84
-48
-176
-412
-688
-896
-1024
-1436
-1436
-1388
-1168
-1008
-752
-540
-428
-300
-128
-128
-140
-124
-204
-396
-572
-1264
-1452
-1424
-1340
-1260
-1196
-1036
-924
-864
-784
-636
-640
-640
-588
-620
-748
-1004
-1052
-1100
-1164
-1136
-1228
-1340
-1360
-1408
-1472
-1424
-1228
-1100
-908
-640
-460
-400
-460
-544
-544
-608
-592
-736
-1036
-1280
-876
548
2468
4196
5124
5248
4784
1636
1028
528
228
-208
-508
-652
-832
-944
-924
-928
-1020
-1084
-1120
-1308
-1456
-1804
-1916
-1756
-1676
-1488
-1424
-1360
-1180
-1136
-1052
-944
-880
-876
-832
-720
-764
-972
-1052
-1100
-1132
-1104
-1052
-1104
-1164
-1104
-1196
-1212
-1152
-1120
-1132
-1104
-1008
-1248
-1404
-1552
-1580
-1776
-1968
-2156
-2400
-2528
-2496
-2476
-2332
-2064
-1760
-1468
-1100
-32
68
324
592
756
820
868
900
800
708
720
580
528
560
576
548
676
692
720
736
900
928
868
848
804
640
532
532
388
292
276
276
324
352
352
496
612
948
1156
1172
832
596
340
192
208
176
160
256
720
592
288
128
116
148
240
260
212
192
256
224
228
324
304
180
-96
-192
-252
-252
-32
96
256
480
628
672
708
800
704
612
612
560
116
-172
-220
496
2208
4224
5664
6352
6224
5440
4384
3380
2564
1744
1076
608
-464
-492
-444
-240
-160
-108
-16
-156
-336
-512
-768
-1068
-1276
-1356
-1484
-1504
-1120
-1068
-768
-544
-240
-96
16
116
20
-112
-236
-464
-780
-1056
-1216
-1436
-1484
-1392
-1260
-1088
-796
-528
-416
-300
-128
-144
-224
-320
-544
-924
-1308
-1648
-2892
-2960
-2928
-2668
-2336
-1840
-1324
-892
-428
64
336
592
836
944
916
868
500
372
404
532
596
656
772
848
852
900
1044
1040
1072
1156
1172
1140
896
800
736
660
708
608
544
532
484
384
320
356
308
320
452
496
592
596
580
644
688
788
708
640
592
500
356
272
276
148
52
68
-112
-92
-12
240
372
468
564
484
400
340
196
-28
-156
-128
-160
-108
164
144
368
468
672
692
708
784
660
448
128
0
772
2468
4288
5456
4064
3232
2484
1824
1236
756
276
-60
-236
-416
-476
-396
-364
-416
-460
-480
-1308
-1520
-1680
-1664
-1692
-1612
-1532
-1500
-1392
-1168
-1100
-976
-784
-656
-592
-508
-784
-988
-1020
-1036
-1168
-1340
-1420
-1484
-1584
-1612
-1532
-1536
-1504
-1388
-1312
-1308
-1200
-1232
-1292
-1404
-1424
-1664
-1964
-2236
-2528
-2844
-2992
-2940
-2896
-2704
-2336
-1952
-588
-332
-140
132
336
532
528
484
484
420
288
196
224
128
84
176
260
304
384
608
708
784
916
852
768
692
560
324
148
48
-140
-252
-300
-352
-144
-28
180
276
372
528
500
468
484
432
276
180
160
4
-284
-304
-300
-268
-124
-28
-48
-32
52
68
100
228
288
256
208
160
-508
-640
-716
-592
-508
-316
-156
-96
-16
100
80
84
160
132
48
36
-544
-460
512
2112
3972
5344
5940
5616
4676
3664
2752
1808
1028
464
-44
-444
-912
-1036
-816
-748
-528
-524
-588
-640
-812
-1072
-1324
-1488
-1724
-1852
-1836
-1856
-1516
-1360
-1196
-988
-764
-524
-460
-448
-432
-560
-800
-1020
-1196
-1488
-1708
-1776
-1920
-1868
-1740
-1468
-1276
-1068
-832
-800
-812
-812
-944
-1216
-1552
-1872
-2320
-2732
-3452
-3440
-3116
-2736
-2240
-1792
-1308
-768
-400
-108
164
276
272
244
240
80
-172
-176
-144
-92
116
292
400
516
672
660
676
752
704
544
404
288
-400
-512
-588
-476
-384
-204
-80
-32
100
308
388
480
628
660
624
608
48
-140
-188
-160
-240
-288
-256
-284
-348
-336
-252
-256
-236
-112
-96
-124
96
20
208
196
256
100
-76
-236
-524
-844
-1008
-1024
-1056
-988
-764
-652
-144
-60
16
84
164
244
148
-44
-304
-684
-444
932
2724
4112
4900
4960
1876
1236
688
356
-80
-384
-556
-796
-896
-908
-1008
-1100
-1148
-1264
-1520
-1772
-2560
-2748
-2672
-2524
-2368
-2208
-2012
-1776
-1648
-1484
-1264
-1216
-1184
-1136
-1200
-1360
-2144
-2316
-2400
-2448
-2316
-2272
-2176
-2016
-1868
-1804
-1692
-1520
-1488
-1340
-1136
-1136
-2524
-2700
-2896
-2972
-3104
-3148
-3264
-3344
-3308
-3244
-3152
-2956
-2620
-2400
-2176
-1872
-1452
-1404
-1308
-1084
-956
-816
-620
-572
-496
-364
-284
-288
-252
-160
-192
-220
-508
-684
-608
-620
-576
-656
-688
-652
-720
-752
-716
-716
-768
-764
-684
-624
-588
-576
-524
-576
-656
-720
-684
-716
-768
-800
-736
-736
-764
-768
-684
-672
-720
-720
-624
-608
-684
-748
-764
-812
-928
-1024
-1036
-880
-876
-1216
-1436
-1440
-1452
-1388
-1356
-1280
-1260
-1200
-1116
-1168
-1152
-1024
-940
-912
-848
-784
-880
-972
-1264
-1388
-1248
-1116
-992
-1040
-1244
-1216
-412
1328
3264
4628
5136
4836
4048
2928
-1648
-1788
-1616
-1472
-1376
-1292
-1260
-1404
-1580
-1728
-2012
-2284
-2480
-2672
-2848
-2896
-2620
-2556
-2300
-2012
-1788
-1628
-1456
-1296
-1308
-1340
-1388
-1600
-1824
-1996
-2188
-2396
-2528
-2464
-2384
-2284
-2028
-1856
-1788
-1692
-1644
-1712
-1788
-1808
-2012
-2252
-2460
-2736
-3744
-3856
-3888
-3724
-3484
-3072
-2732
-2396
-1996
-1632
-1404
-1212
-1004
-988
-1004
-944
-1200
-1212
-1136
-928
-812
-668
-428
-300
-192
-28
68
64
80
144
20
-92
-604
-800
-748
-796
-704
-716
-668
-528
-512
-428
-256
-108
-64
20
144
132
36
-32
-108
-156
-160
-128
-256
-220
-48
20
-316
-444
-464
-464
-380
-176
0
-12
-12
116
80
84
144
68
16
16
-140
-332
-412
-480
-668
-796
-448
-336
-32
276
544
660
752
816
704
592
528
320
148
-28
-384
-716
4272
5376
5952
5904
5472
4624
3680
2864
2176
1456
884
516
112
-140
-208
-288
-640
-768
-892
-908
-1008
-1024
-1104
-1212
-1232
-1200
-1244
-1180
-992
-880
-764
-560
-336
-352
-352
-256
-348
-476
-576
-796
-1008
-1116
-1180
-1264
-1292
-1184
-1164
-1052
-668
-684
-464
-380
-208
-256
-396
-508
-800
-1132
-1440
-1808
-2192
-2476
-2576
-2652
-1868
-1536
-1196
-816
-352
224
688
784
672
480
324
308
320
260
276
432
656
704
756
976
1076
1200
1328
1268
1216
1220
1088
928
820
688
480
340
164
128
288
496
644
708
800
912
884
1156
1280
1108
752
544
464
352
352
372
420
468
644
756
752
772
804
704
608
592
448
244
164
84
-12
4
4
144
224
336
336
228
176
228
208
256
416
468
484
564
260
192
196
320
340
352
336
80
52
1088
2980
4768
6084
6608
6128
5248
1936
1216
832
384
84
-208
-380
-396
-400
-432
-380
-268
-316
-320
-284
-396
-784
-908
-976
-1008
-976
-896
-940
-928
-832
-800
-812
-764
-684
-704
-720
-624
-748
-780
-812
-684
-720
-764
-752
-876
-972
-976
-1072
-1164
-1104
-1100
-1152
-1164
-1276
-1440
-1472
-1516
-1632
-1724
-1712
-1836
-2284
-2524
-2476
-2336
-2108
-1728
-1276
-908
356
532
676
800
996
1056
980
896
864
688
548
516
416
320
324
356
388
432
480
656
788
964
1024
980
976
992
852
736
692
516
384
324
4
-28
36
228
336
436
592
624
596
660
704
640
580
592
464
352
-112
-304
-252
-284
-204
-240
-204
-32
84
164
276
304
228
196
208
36
-252
-224
-172
-92
64
212
192
196
260
176
148
196
192
112
0
-176
3092
4416
5332
5856
5584
4868
3936
2928
2080
1408
752
228
-96
-160
-256
-620
-1004
-1052
-912
-764
-716
-784
-892
-988
-1232
-1456
-1564
-1728
-1804
-1756
-1676
-1632
-1084
-944
-828
-736
-524
-460
-528
-636
-752
-1024
-1264
-1388
-1580
-1712
-1724
-1696
-1376
-1280
-1168
-972
-668
-364
-288
-748
-1132
-1436
-1836
-2192
-2448
-2752
-2944
-2992
-2512
-2236
-1868
-1392
-992
-640
-256
-32
68
144
196
100
32
48
-44
-108
32
16
256
368
628
724
816
948
960
912
928
852
676
528
448
244
-80
-124
-108
-64
48
196
208
228
340
320
308
336
304
208
148
144
-176
-224
-252
-128
-96
-28
48
0
-48
-12
-108
-172
-172
-220
-304
-304
-320
-428
-368
-268
-272
-364
-412
-448
-512
-480
-320
-272
-208
-80
-12
-16
32
32
32
16
68
-172
-444
-16
1456
3248
4740
5616
5476
4768
3888
2900
356
-12
-332
-448
-540
-464
-508
-492
-428
-444
-560
-688
-844
-1180
-1500
-1728
-2620
-2716
-2704
-2524
-2396
-2224
-1996
-1884
-1740
-1536
-1388
-1356
-1328
-1280
-1372
-1436
-1676
-1804
-1664
-1548
-1408
-1360
-1292
-1132
-1116
-1088
-1004
-976
-1020
-1020
-1008
-1180
-1916
-2160
-2400
-2608
-2684
-2716
-2752
-2640
-2368
-2144
-1852
-1456
-1136
-908
-652
-396
-172
-188
-188
-76
-16
80
80
-12
-32
36
-32
-76
0
-28
-64
20
-60
-140
-108
32
20
-12
20
-60
-188
-268
-300
-428
-476
-412
-428
-448
-364
-464
-300
-272
-112
-140
-160
-128
-192
-332
-412
-448
-576
-656
-640
-736
-908
-956
-972
-940
-832
-640
-576
-524
-428
-480
-624
-748
-832
-1056
-1232
-1248
-1120
-1008
-880
-620
-464
-304
-140
-140
-160
-144
-256
-416
-556
-864
-1244
-876
4468
4768
4676
4256
3412
2496
1684
1024
320
-240
-592
-928
-1168
-1228
-1264
-1360
-1676
-1820
-1948
-2080
-2096
-2176
-2300
-2300
-2236
-2256
-2224
-2092
-2044
-1980
-1820
-1696
-1612
-1648
-1708
-1664
-1724
-1712
-1580
-1596
-1980
-2220
-2444
-2512
-2384
-2284
-2160
-1948
-1644
-1692
-1648
-1568
-1664
-1808
-1984
-2284
-2700
-3068
-3344
-3708
-3964
-4028
-4012
-3852
-2572
-2352
-1868
-1536
-1068
-860
-732
-608
-592
-656
-672
-652
-736
-748
-640
-624
-332
-284
-220
-144
-76
0
-124
-268
-352
-544
-796
-940
-1008
-1148
-1200
-1132
-992
-924
-832
-588
-464
-364
-224
-300
-396
-432
-608
-844
-1004
-1120
-1292
-1376
-1392
-1424
-1232
-1008
-784
-684
-556
-384
-380
-416
-448
-652
-892
-1068
-1244
-1452
-1420
-1360
-1328
-1280
-1084
-988
-960
-972
-928
-972
-940
-784
-720
-704
-672
-716
-1148
-1216
-1264
-1148
-1040
-908
-1008
-1280
-988
448
2320
4000
5156
5312
4724
3840
260
-348
-800
-1068
-1404
-1600
-1612
-1600
-1600
-1548
-1440
-1488
-1548
-1552
-1728
-1904
-2464
-2640
-2524
-2492
-2304
-2204
-2076
-1868
-1744
-1696
-1568
-1404
-1376
-1340
-1260
-1328
-1600
-1696
-1756
-1756
-1712
-1600
-1644
-1660
-1564
-1536
-1532
-1468
-1372
-1392
-1404
-1248
-1264
-1440
-1644
-1808
-2076
-2400
-2700
-2864
-2956
-3004
-2892
-2620
-2272
-1936
-1536
-1136
-736
-524
-320
-160
-28
-48
-48
-16
80
84
100
176
324
404
464
576
756
820
736
772
804
736
692
720
608
468
404
304
160
112
164
112
292
336
388
464
640
752
720
688
704
564
436
404
336
212
176
192
464
260
512
756
832
736
624
500
256
36
-16
-128
-144
-32
52
52
176
148
128
144
340
484
548
688
820
756
688
676
516
416
400
340
0
-240
-380
132
1684
3780
5520
6500
6660
6052
5008
3956
3088
2164
1392
804
-576
-652
-624
-432
-348
-252
-124
-144
-268
-332
-428
-652
-812
-896
-1084
-1196
-1248
-1264
-1036
-892
-608
-464
-332
-124
-80
-92
-76
-160
-368
-556
-668
-924
-1392
-1408
-1376
-1276
-1084
-844
-732
-608
-428
-416
-432
-428
-492
-688
-924
-1152
-2416
-2608
-2700
-2544
-2364
-2032
-1628
-1292
-908
-416
-96
208
528
708
772
848
692
564
608
708
704
692
752
768
708
708
784
736
720
816
848
816
688
628
592
528
576
484
436
464
420
352
356
464
452
480
596
624
656
628
628
656
688
752
640
544
516
452
324
272
276
176
144
228
132
148
224
432
852
1072
964
628
400
308
180
-16
-124
-112
-112
-32
372
336
452
596
660
628
612
608
480
372
292
-16
-204
576
2256
4052
5476
4708
3920
3152
2464
1792
1136
612
256
-96
-304
-368
-492
-508
-460
-460
-860
-976
-1120
-1148
-1228
-1228
-1312
-1404
-1372
-1344
-1376
-1324
-1152
-1072
-960
-768
-588
-576
-572
-464
-540
-652
-704
-896
-1132
-1260
-1388
-1548
-1584
-1504
-1504
-1420
-1036
-1052
-860
-800
-684
-812
-1024
-1260
-1632
-2032
-2320
-2588
-2796
-2812
-2620
-2412
-1056
-716
-364
-28
388
756
912
1024
1140
1040
912
820
708
528
388
368
228
256
276
484
580
708
836
816
772
804
672
564
512
400
224
112
-92
-176
-48
132
292
368
452
564
528
496
516
368
272
224
128
-12
-160
-172
-156
-140
32
64
20
20
64
-32
-80
0
-28
-16
36
16
-412
-528
-640
-572
-464
-240
-108
0
132
244
240
244
288
180
112
84
-428
-700
-732
-28
1600
3508
5104
5808
5616
4932
3952
2896
2000
1312
612
80
-812
-896
-720
-636
-448
-416
-444
-476
-684
-956
-1152
-1392
-1680
-1868
-1920
-2028
-1728
-1612
-1468
-1292
-1008
-768
-704
-668
-588
-672
-784
-876
-1020
-1248
-1408
-1488
-1756
-1728
-1664
-1440
-1276
-1072
-940
-892
-860
-800
-940
-1104
-1260
-1500
-1836
-2144
-3036
-3164
-3040
-2800
-2496
-2156
-1712
-1324
-1040
-748
-416
-252
-112
48
100
80
128
176
244
292
500
576
592
640
640
564
528
576
452
372
356
292
0
-48
-92
4
84
256
288
340
468
528
468
452
496
416
308
304
-108
-204
-236
-112
-128
-96
20
-12
-12
32
16
-76
-128
-112
-220
-300
-476
-556
-364
-252
-92
-128
-188
-176
-332
-492
-588
-684
-748
-688
-496
-400
32
84
132
176
292
352
244
144
48
-332
-668
-192
1300
3092
4564
5412
3136
2384
1696
1248
720
352
16
-316
-496
-540
-636
-684
-668
-768
-944
-1100
-1936
-2172
-2192
-2112
-2080
-1984
-1824
-1676
-1568
-1420
-1196
-1088
-976
-832
-812
-892
-1468
-1648
-1788
-1920
-1916
-2012
-2044
-1996
-1948
-1952
-1900
-1744
-1692
-1648
-1536
-1536
-1820
-1968
-2172
-2288
-2480
-2624
-2912
-3184
-3356
-3456
-3520
-3452
-3196
-2960
-2656
-2220
-1132
-944
-764
-476
-336
-272
-204
-300
-380
-384
-464
-556
-588
-524
-560
-556
-412
-460
-320
-144
-44
-64
-92
-60
-204
-332
-380
-480
-592
-672
-704
-832
-864
-848
-800
-736
-560
-444
-460
-444
-396
-480
-556
-544
-640
-796
-848
-844
-1072
-1116
-1132
-1020
-956
-864
-848
-912
-960
-928
-1020
-1040
-960
-972
-1072
-1132
-1532
-1680
-1644
-1472
-1344
-1152
-880
-704
-636
-544
-432
-476
-512
-512
-620
-768
-1408
-1692
-1196
-48
2020
3780
4960
5332
4848
3888
2896
1984
1028
240
-320
-892
-1804
-1824
-1808
-1756
-1676
-1568
-1644
-1740
-1792
-1952
-2172
-2300
-2412
-2560
-2640
-2592
-2380
-2288
-2172
-1916
-1744
-1568
-1388
-1404
-1456
-1468
-1600
-1788
-1932
-2092
-2304
-2444
-2560
-2620
-2448
-2240
-2028
-1904
-1776
-1648
-1692
-1740
-1744
-1920
-2156
-2396
-2700
-3116
-4048
-4080
-3984
-3788
-3340
-2896
-2512
-2092
-1648
-1376
-1136
-880
-800
-752
-672
-656
-800
-816
-812
-672
-572
-364
-272
-300
-252
-188
-240
-284
-272
-400
-496
-524
-864
-908
-896
-752
-732
-716
-620
-624
-688
-684
-656
-736
-764
-716
-780
-800
-880
-960
-812
-780
-656
-672
-688
-640
-720
-812
-800
-848
-940
-972
-896
-956
-1068
-1100
-1100
-1024
-864
-672
-636
-604
-556
-656
-752
-812
-924
-1088
-1164
-1072
-572
-400
-236
36
176
308
420
336
260
224
32
-140
-364
-732
-764
308
5428
5392
5040
4484
3620
2736
1968
1312
640
100
-204
-492
-636
-620
-608
-640
-800
-892
-960
-1052
-1024
-1132
-1308
-1404
-1452
-1532
-1532
-1440
-1408
-1312
-1120
-940
-496
-412
-352
-236
-208
-204
-368
-592
-752
-972
-1200
-1360
-1372
-1436
-1436
-1312
-1024
-912
-784
-576
-528
-540
-560
-800
-1100
-1392
-1772
-2176
-2480
-2624
-2768
-2732
-1580
-1308
-780
-304
212
560
852
1120
1152
1136
1108
976
768
656
580
416
352
400
500
608
852
1012
1104
1232
1380
1360
1332
1360
1264
1104
996
832
196
96
32
128
192
340
432
480
580
740
788
900
1040
1028
992
1008
516
388
320
372
292
240
276
240
208
260
288
244
240
324
292
320
580
544
692
676
752
608
432
304
32
-96
-76
-16
32
144
340
404
740
756
788
820
900
960
704
320
372
1328
3028
4772
5888
6064
5572
4816
3840
2912
2080
1428
832
340
32
-60
-108
-108
-28
160
240
164
68
-12
-224
-544
-848
-1024
-1184
-1344
-1404
-1328
-1228
-1148
-988
-764
-524
-400
-272
-128
-12
-64
-220
-288
-432
-636
-796
-908
-1104
-1228
-1232
-1308
-1312
-1228
-1136
-1104
-828
-812
-752
-736
-624
-720
-956
-1196
-1452
-1824
-2188
-2396
-2588
-2620
-2448
-2192
532
516
692
1028
1108
1136
1156
1076
884
740
676
496
372
400
384
388
692
644
864
932
1140
1184
1184
1204
1124
932
784
688
436
244
208
100
68
132
228
388
592
820
848
880
960
944
816
708
624
404
224
112
-396
-460
-464
-316
-268
-176
-12
36
128
308
416
420
436
420
228
32
-684
-812
-688
-480
-256
-108
52
244
276
336
480
512
480
516
564
592
1120
2468
3872
4992
5808
5696
4900
3956
3108
2212
1456
896
416
4
-240
-348
-496
-512
-556
-512
-544
-592
-752
-1052
-1324
-1516
-1756
-1888
-1868
-1868
-1836
-1696
-1056
-972
-720
-444
-256
-192
-144
-240
-460
-700
-896
-1212
-1488
-1632
-1756
-1856
-1536
-1388
-1212
-1052
-732
-592
-512
-432
-476
-700
-976
-1276
-1728
-2188
-2560
-2896
-2912
-2668
-2348
-1884
-1344
-736
-332
32
340
560
564
560
548
356
196
144
-128
-96
0
244
388
548
772
852
932
1056
1088
996
932
912
740
576
-32
-208
-108
-48
68
96
160
320
340
388
516
576
544
644
836
836
-240
-380
-448
-448
-348
-172
-160
-128
-28
-32
-60
0
-28
-156
-252
-236
-352
-384
-396
-268
-252
-220
-204
-352
-460
-380
-352
-288
-128
0
36
84
-108
-236
-172
-64
-32
-96
-236
-416
-220
1056
3012
4612
5636
5840
5268
4276
1264
736
304
-60
-236
-416
-576
-604
-540
-572
-560
-528
-684
-828
-928
-1088
-1772
-1868
-1932
-1824
-1708
-1488
-1360
-1260
-1068
-864
-796
-716
-576
-592
-624
-656
-1308
-1436
-1504
-1452
-1532
-1568
-1488
-1472
-1484
-1376
-1280
-1264
-1216
-1132
-1180
-1228
-1680
-1952
-2028
-2220
-2332
-2544
-2704
-2716
-2720
-2592
-2332
-2016
-1744
-1404
-992
-736
-60
4
80
160
276
384
336
320
368
276
208
224
240
208
228
368
448
452
464
596
592
592
592
452
320
256
68
-48
-76
-144
-240
-288
-348
-416
-304
-140
-28
16
68
128
64
4
4
-140
-256
-304
-396
-544
-848
-876
-876
-880
-732
-668
-588
-412
-220
-192
-192
-172
-316
-428
-524
-700
-1148
-1120
-1088
-912
-748
-524
-448
-444
-396
-352
-412
-428
-368
-480
-656
-908
2500
3780
4672
5152
4788
3940
3012
2004
1092
400
-208
-764
-1136
-1308
-1456
-1488
-1340
-1424
-1280
-1292
-1280
-1488
-1740
-1920
-2208
-2444
-2560
-2624
-2688
-2640
-2460
-2348
-1648
-1536
-1408
-1296
-1136
-1036
-1148
-1312
-1440
-1696
-1936
-2076
-2208
-2368
-2432
-2352
-2204
-2144
-2080
-1872
-1804
-1756
-1744
-1900
-2076
-2240
-2588
-2912
-3180
-3424
-3660
-3744
-3200
-2988
-2576
-2144
-1724
-1408
-1104
-860
-784
-752
-652
-684
-700
-652
-652
-688
-572
-528
-464
-412
-208
-128
-112
-60
-64
-188
-304
-352
-544
-700
-764
-844
-1036
-1020
-1004
-844
-704
-512
-464
-448
-380
-368
-480
-572
-604
-768
-880
-924
-1244
-1248
-1200
-1024
-940
-844
-688
-672
-640
-576
-576
-700
-796
-832
-1024
-1184
-880
-1020
-1372
-1516
-1376
-1376
-1328
-1212
-1212
-1244
-1180
-1084
-1052
-972
-812
-784
-876
-940
-976
-988
-944
-876
-924
-992
-1132
-1296
-700
1012
2960
4448
5232
5204
1680
896
192
-256
-828
-1216
-1452
-1680
-1792
-1712
-1708
-1660
-1564
-1536
-1632
-1696
-2208
-2416
-2384
-2320
-2288
-2300
-2252
-2124
-2108
-2060
-1884
-1852
-1776
-1648
-1584
-1632
-1792
-1840
-1868
-1916
-1824
-1868
-1968
-1996
-1968
-2048
-2080
-2016
-2044
-2028
-1952
-1932
-2188
-2272
-2396
-2416
-2576
-2716
-2928
-3196
-3324
-3376
-3388
-3248
-2956
-2688
-2352
-1916
-864
-716
-528
-268
-124
-44
68
36
260
336
148
-236
-492
-544
-668
-736
-700
-688
-364
-156
240
416
564
724
704
544
416
304
80
-96
-128
-272
-112
-12
160
368
660
976
1088
1140
1236
1168
1008
900
740
480
256
116
208
1632
3312
4916
6096
6404
6004
5060
4064
3236
2400
1648
1076
628
192
-96
-540
-668
-592
-512
-540
-684
-832
-944
-1164
-1296
-1324
-1408
-1420
-1328
-1216
-1164
-688
-652
-592
-544
-368
-332
-444
-572
-684
-876
-1024
-1072
-1232
-1328
-1312
-1296
-1164
-1132
-1068
-892
-768
-652
-700
-844
-992
-1164
-1504
-1868
-2112
-2428
-2620
-2656
-2144
-1856
-1500
-1020
-604
-192
224
468
608
740
848
756
688
704
580
500
448
400
596
688
900
948
964
1056
1024
960
976
944
804
704
704
564
420
416
436
496
608
724
720
720
804
768
724
756
740
656
608
640
420
384
340
464
480
544
656
612
608
660
628
608
660
660
596
564
372
244
320
416
468
452
468
512
448
420
480
384
320
320
304
192
68
64
64
52
164
208
144
100
96
4
-48
20
-16
-44
-44
-64
16
48
52
212
304
448
468
420
420
464
388
368
432
336
292
224
1700
3296
4740
5888
6292
5856
5024
3952
2932
2084
1376
688
164
-112
-396
-512
-336
-380
-192
-160
-92
-236
-444
-608
-896
-1212
-1372
-1456
-1584
-1596
-1440
-1324
-620
-480
-348
-188
4
164
112
-16
-96
-320
-604
-828
-1024
-1292
-1424
-1424
-1324
-1212
-1068
-768
-592
-412
-236
-240
-300
-352
-592
-924
-1216
-1584
-2012
-2380
-2784
-2704
-2336
-1900
-1408
-928
-460
36
308
516
784
864
884
912
848
688
404
384
404
448
656
768
816
880
980
960
948
1024
928
836
804
720
160
48
-32
20
32
148
192
192
260
352
324
340
448
400
400
464
224
148
132
228
176
116
160
96
-28
-60
-64
-156
-156
-48
-60
68
164
256
196
112
52
84
64
32
68
176
160
64
-16
-44
-172
-368
-492
-444
-368
-304
-176
20
144
164
192
272
288
208
116
100
64
-172
-508
-620
128
1732
3568
5060
5584
5332
4644
3732
2816
2036
1408
724
196
-144
-880
-928
-924
-768
-764
-796
-812
-992
-1180
-1280
-1424
-1612
-1712
-1692
-1740
-1708
-796
-764
-752
-720
-748
-816
-1052
-1248
-1344
-1536
-1676
-1680
-1660
-1648
-1564
-1388
-1008
-940
-892
-720
-672
-656
-704
-972
-1276
-1548
-1980
-2380
-2656
-2892
-3072
-3052
-2016
-1744
-1264
-780
-304
84
388
576
548
496
484
336
148
80
-16
-128
48
160
288
416
704
852
932
1044
1060
948
820
724
496
288
116
-64
-412
-396
-348
-160
36
308
432
548
708
800
772
768
784
596
404
276
-496
-604
-640
-512
-496
-432
-284
-256
-204
-76
0
-12
4
112
100
112
-80
-288
-256
-288
-368
-560
-700
-668
-684
-604
-396
-208
-92
68
260
288
324
272
212
112
-12
-300
-268
852
2692
4212
5188
5412
4832
3844
2928
2148
48
-236
-432
-428
-428
-332
-268
-300
-304
-284
-460
-704
-928
-1244
-1536
-1724
-2044
-2044
-1856
-1596
-1360
-1132
-844
-652
-544
-432
-332
-412
-540
-652
-928
-1212
-1804
-1984
-1856
-1804
-1564
-1436
-1296
-1116
-1024
-992
-912
-848
-960
-1100
-1200
-1500
-2624
-2880
-3084
-3180
-3196
-3056
-2928
-2684
-2256
-1888
-1536
-1148
-800
-592
-428
-236
-368
-412
-432
-320
-316
-252
-156
-160
-156
-48
-64
-48
36
68
4
-44
-364
-540
-508
-444
-460
-540
-576
-544
-608
-608
-524
-544
-528
-432
-396
-416
-412
-432
-432
-464
-364
-384
-476
-508
-540
-672
-768
-752
-816
-832
-768
-768
-912
-960
-1020
-956
-912
-768
-768
-748
-720
-764
-908
-1008
-1040
-1232
-1392
-1404
-1196
-1088
-912
-640
-492
-396
-268
-332
-412
-448
-540
-720
-908
-1164
-1484
-1068
4432
4724
4704
4228
3380
2388
1536
864
176
-396
-768
-944
-992
-1168
-1456
-1744
-2096
-2172
-2220
-2240
-2208
-2156
-2236
-2316
-2288
-2364
-2368
-2284
-2220
-2192
-2108
-1964
-1916
-1932
-1920
-1792
-1740
-1692
-1712
-1852
-1948
-1952
-2076
-2140
-2108
-2108
-2128
-2096
-2060
-2124
-2012
-1872
-1856
-1904
-1964
-2096
-2368
-2656
-2880
-3212
-3472
-3568
-3600
-3568
-2556
-2268
-1964
-1664
-1228
-960
-812
-668
-588
-636
-656
-608
-688
-732
-672
-640
-524
-464
-432
-288
-204
-76
-128
-192
-236
-336
-544
-704
-780
-940
-1024
-988
-992
-940
-876
-688
-604
-496
-336
-348
-396
-396
-460
-592
-700
-736
-908
-1008
-1248
-1360
-1212
-1100
-972
-912
-864
-748
-752
-752
-704
-736
-880
-976
-1036
-1196
-1264
-1248
-1212
-1180
-1052
-988
-1040
-1100
-1120
-1216
-1228
-1104
-1024
-960
-864
-732
-816
-848
-880
-800
-764
-684
-716
-992
-1228
-716
736
2592
4228
5328
5428
4464
512
-188
-608
-876
-1164
-1376
-1404
-1344
-1296
-1168
-956
-912
-912
-880
-976
-1212
-2000
-2124
-2188
-2220
-2048
-1952
-1856
-1676
-1520
-1452
-1324
-1116
-1040
-988
-876
-896
-1356
-1472
-1612
-1616
-1628
-1548
-1580
-1580
-1488
-1424
-1404
-1324
-1168
-1164
-1164
-1100
-1552
-1708
-1856
-1916
-2156
-2380
-2512
-2672
-2732
-2592
-2412
-2208
-1900
-1488
-1168
-848
-96
-96
112
240
352
356
384
452
400
388
452
468
452
500
612
608
800
800
800
804
916
944
836
724
688
516
416
404
320
224
196
256
304
308
324
468
576
884
1056
912
628
512
324
240
276
304
292
324
436
416
528
672
672
628
624
532
340
208
164
64
48
132
160
112
64
4
-32
-60
144
240
384
564
660
676
724
800
708
612
624
788
-44
-320
-604
-444
660
2704
4640
6116
6804
6532
5652
4656
3744
2768
1936
1296
-448
-608
-672
-572
-556
-508
-412
-476
-528
-528
-588
-732
-828
-848
-992
-1088
-780
-1036
-1232
-1212
-956
-816
-668
-444
-368
-288
-204
-176
-268
-352
-396
-560
-928
-992
-1004
-976
-864
-752
-768
-736
-636
-656
-688
-668
-716
-860
-988
-1100
-2144
-2336
-2476
-2400
-2316
-2064
-1788
-1536
-1244
-864
-608
-348
-16
212
340
516
800
752
832
980
996
1028
1076
1024
900
832
836
704
612
628
608
592
560
448
624
644
816
804
784
820
784
644
580
576
448
388
404
320
292
292
308
356
468
640
640
644
720
708
656
660
688
560
452
432
-80
-156
-140
68
208
336
500
480
464
516
436
260
164
96
164
384
-16
-124
32
196
384
480
592
752
752
740
736
468
256
912
2544
4240
5300
4468
3600
2772
2032
1344
704
228
-76
-380
-496
-444
-412
-384
-304
-192
-668
-880
-1116
-1232
-1436
-1548
-1676
-1804
-1804
-1696
-1648
-1520
-1276
-1068
-876
-620
-240
-252
-240
-192
-364
-572
-768
-1052
-1376
-1628
-1772
-1904
-1916
-1756
-1664
-1548
-960
-960
-732
-684
-576
-716
-972
-1296
-1772
-2316
-2736
-3024
-3244
-3260
-3024
-2764
-1040
-640
-252
132
548
928
1028
1072
1104
960
704
516
320
68
-92
-92
-12
100
240
528
708
900
1092
1220
1408
1332
868
756
580
208
-284
-572
-620
-608
-332
-92
192
368
532
740
784
788
816
720
528
340
196
-48
-464
-496
-492
-448
-272
-144
-96
-16
128
132
180
324
384
368
340
276
-492
-688
-848
-816
-780
-588
-400
-256
-76
160
244
320
436
436
400
420
-156
-508
-604
-16
1508
3380
4944
5684
5508
4768
3872
2816
1908
1236
608
132
-380
-208
-188
-400
-604
-592
-572
-544
-652
-880
-1120
-1296
-1568
-1772
-1840
-1920
-1724
-1568
-1404
-1152
-892
-592
-480
-416
-352
-400
-572
-752
-912
-1216
-1468
-1596
-1980
-1948
-1856
-1612
-1452
-1260
-1004
-924
-848
-748
-768
-912
-1056
-1216
-1548
-1900
-3040
-3228
-3072
-2880
-2572
-2256
-1872
-1376
-1036
-700
-336
-96
48
180
304
356
372
356
336
180
96
52
128
128
148
228
384
480
532
592
676
672
596
544
564
480
336
224
208
144
16
-44
4
32
4
4
100
160
160
208
224
180
128
160
240
164
100
128
32
-48
-64
-124
-240
-288
-448
-556
-464
-316
-192
-108
16
164
180
180
208
36
-108
-224
-428
-672
0
4
112
208
288
340
276
96
-80
-256
-704
-992
-352
1216
2980
4420
3600
3092
2608
2084
1108
336
-48
-352
-640
-812
-832
-944
-1008
-992
-1116
-1340
-2076
-2240
-2348
-2412
-2304
-2272
-2172
-2000
-1856
-1772
-1616
-1404
-1328
-1260
-1132
-1120
-1516
-1664
-1836
-1888
-1980
-1996
-2112
-2172
-2112
-2048
-2048
-1984
-1840
-1808
-1760
-1616
-1760
-1856
-1936
-1936
-2172
-2428
-2668
-3040
-3388
-3584
-3744
-3808
-3696
-3392
-3116
-2748
-1356
-1196
-864
-592
-380
-332
-332
-304
-444
-544
-572
-640
-716
-700
-588
-560
-320
-284
-204
-124
48
96
4
-76
-124
-320
-508
-592
-780
-972
-1056
-1056
-1052
-1008
-944
-764
-588
-384
-288
-316
-320
-288
-412
-528
-556
-668
-812
-860
-1120
-1200
-1120
-940
-860
-784
-684
-668
-748
-768
-748
-828
-860
-784
-816
-892
-1308
-1504
-1440
-1484
-1340
-1260
-1116
-896
-736
-668
-576
-480
-540
-588
-544
-656
-1020
-1200
-1468
-1552
-848
912
2788
4308
5152
5024
4228
3268
2320
1364
592
16
-1536
-1680
-1756
-1628
-1552
-1440
-1340
-1436
-1568
-1660
-1888
-2172
-2352
-2508
-2652
-2688
-2400
-2348
-2092
-1824
-1568
-1420
-1264
-1136
-1196
-1308
-1372
-1632
-1836
-1996
-2176
-2412
-2636
-2576
-2492
-2380
-2096
-1916
-1804
-1692
-1564
-1612
-1664
-1664
-1840
-2076
-2284
-2572
-3724
-3900
-3996
-3872
-3676
-3308
-2944
-2576
-2108
-1676
-1404
-1152
-892
-540
-384
-604
-1276
-1292
-1184
-956
-800
-640
-416
-284
-220
-140
-44
-112
-176
-188
-320
-448
-848
-1024
-912
-912
-752
-736
-688
-576
-544
-572
-524
-448
-508
-544
-492
-268
-880
-988
-1020
-940
-828
-608
-556
-464
-304
-256
-252
-220
-160
-224
-284
-268
-716
-784
-832
-732
-748
-668
-476
-400
-316
-172
-144
-204
-220
-192
-352
-492
-556
-572
-352
-160
32
96
164
256
208
192
256
212
128
52
-108
-368
4576
5652
6196
6132
5600
4656
3600
2676
1924
1152
544
160
-172
-396
-444
-400
-444
-512
-620
-620
-736
-832
-1040
-1004
-1072
-1376
-1728
-1884
-1776
-1616
-1436
-1164
-332
-256
-48
176
228
228
176
-48
-428
-796
-1084
-1440
-1676
-1740
-1772
-1756
-1088
-1008
-672
-496
-160
-32
16
52
-108
-464
-908
-1356
-1936
-2448
-2784
-3040
-2476
-2128
-1708
-1216
-636
4
464
848
1188
1360
1364
1364
1332
1104
864
736
160
84
84
292
416
580
804
896
992
1168
1220
1204
1236
1268
1140
1040
356
144
148
224
244
212
256
356
356
404
544
596
656
788
880
864
784
708
656
576
624
580
468
384
356
240
180
228
148
96
128
128
404
480
532
676
736
788
660
404
196
68
-96
-172
-80
-92
0
148
324
368
448
624
672
736
788
560
256
564
1952
3744
5344
6356
6276
5588
2176
1444
1060
628
356
48
-140
-124
-124
-124
-44
48
4
-64
-96
-316
-1196
-1356
-1452
-1456
-1404
-1264
-1228
-1116
-876
-688
-572
-400
-204
-140
-92
4
-400
-544
-684
-672
-796
-880
-880
-988
-1056
-1008
-992
-972
-892
-752
-720
-668
-764
-972
-1036
-1116
-1324
-1660
-1964
-2188
-2432
-2544
-2476
-2352
-2156
-1804
-1404
-1024
164
368
564
708
944
1040
996
992
1008
852
736
724
608
544
548
544
560
544
560
704
804
976
1012
960
932
884
708
608
592
452
324
304
64
52
96
272
324
404
560
608
656
740
768
672
596
596
464
372
16
-144
-76
-60
-12
-76
-80
32
64
148
272
304
228
208
192
-16
-400
-384
-316
-220
32
208
240
260
340
260
224
272
244
180
128
4
1956
3456
4692
5616
5888
5460
4564
3520
2592
1860
1120
516
116
-236
-524
-652
-832
-908
-864
-768
-812
-896
-960
-1088
-1292
-1420
-1456
-1580
-1612
-1504
-1452
-1388
-960
-992
-764
-672
-460
-432
-480
-540
-716
-944
-1136
-1280
-1500
-1644
-1632
-1676
-1504
-1440
-1356
-1232
-1084
-924
-944
-1004
-1024
-1184
-1484
-1772
-2044
-2400
-2684
-2796
-2656
-2444
-2160
-1696
-1280
-860
-416
-172
4
224
320
324
384
448
384
336
720
800
560
148
176
212
320
516
576
640
740
740
656
592
596
452
80
-16
-64
-108
-32
-28
-92
-96
0
-16
-28
80
128
144
212
336
292
260
212
260
260
288
228
68
-76
-156
-320
-444
-448
-528
-592
-508
-140
-156
-32
160
212
208
176
48
-124
-192
-188
-272
-336
-288
-320
-348
-208
-256
-32
32
192
112
-128
-128
612
2244
4048
5392
5792
5408
4576
3440
452
4
-336
-588
-732
-700
-688
-608
-416
-336
-288
-188
-208
-396
-636
-848
-1964
-2128
-2204
-2064
-1952
-1756
-1532
-1392
-1216
-928
-780
-652
-492
-416
-464
-524
-1148
-1388
-1440
-1436
-1520
-1548
-1488
-1456
-1484
-1452
-1340
-1324
-1264
-1100
-1040
-1072
-1452
-1776
-1856
-2076
-2208
-2448
-2620
-2656
-2636
-2556
-2348
-1996
-1740
-1424
-1024
-752
36
116
196
304
432
564
528
484
512
468
340
288
276
160
112
160
-80
-96
-92
68
116
180
288
240
228
276
212
100
48
16
-128
-220
-384
-496
-412
-272
-192
-160
-124
-48
-128
-192
-160
-208
-304
-364
-416
-560
-896
-956
-988
-1020
-896
-816
-764
-652
-480
-460
-480
-464
-576
-716
-828
-1004
-1260
-1216
-1132
-940
-800
-592
-496
-480
-432
-380
-448
-508
-512
-700
-992
-1216
3300
4356
4896
4992
4352
3440
2564
1652
820
176
-316
-800
-1132
-1244
-1376
-1408
-1424
-1552
-1500
-1564
-1600
-1808
-2032
-2156
-2348
-2512
-2544
-2556
-2572
-2460
-2236
-1984
-1792
-1612
-1404
-1344
-1372
-1420
-1436
-1564
-1744
-1916
-1980
-2108
-2256
-2364
-2348
-2336
-2336
-2288
-2140
-2016
-1964
-1888
-1788
-1760
-1856
-1968
-2092
-2268
-2576
-2892
-3196
-3424
-3676
-3788
-3792
-3696
-3504
-3136
-2476
-1824
-1484
-1296
-1120
-1008
-860
-636
-604
-576
-700
-832
-736
-668
-576
-556
-476
-320
-304
-272
-172
-128
-156
-160
-160
-320
-1008
-1020
-944
-768
-672
-556
-400
-384
-352
-256
-336
-380
-368
-412
-544
-636
-1008
-1164
-1120
-1008
-928
-896
-848
-736
-736
-736
-700
-784
-832
-828
-896
-1020
-1148
-1120
-1072
-1020
-844
-816
-876
-908
-956
-1148
-1340
-1360
-1420
-1404
-1276
-1168
-928
-912
-924
-812
-720
-588
-560
-620
-700
-944
-1136
-444
1296
3040
4404
5120
2388
1572
896
416
-224
-732
-1008
-1264
-1424
-1420
-1392
-1420
-1404
-1312
-1388
-1516
-2236
-2464
-2444
-2480
-2384
-2336
-2256
-2080
-1996
-1884
-1676
-1516
-1440
-1344
-1228
-1260
-1548
-1680
-1792
-1856
-1932
-1968
-2124
-2208
-2160
-2176
-2140
-2016
-1888
-1820
-1692
-1500
-1488
-1584
-1676
-1676
-1868
-2112
-2336
-2684
-2972
-3104
-3232
-3216
-2988
-2716
-2400
-2028
-784
-652
-368
-108
96
176
244
288
212
176
228
164
176
224
240
212
384
416
452
480
672
708
656
624
612
468
356
340
212
148
164
164
84
84
68
180
272
436
500
500
516
564
480
400
420
304
208
212
20
-32
-16
116
132
420
544
528
68
-220
-304
-416
-380
-160
-32
144
420
260
356
260
228
48
-60
-32
-64
-96
-76
-16
-64
-48
80
84
336
384
384
276
148
608
1988
3892
5632
6544
6496
5828
4800
3616
2576
1732
-416
-624
-732
-576
-460
-236
20
112
180
288
196
64
-96
-352
-716
-1020
-1760
-1856
-1724
-1504
-1308
-1104
-832
-576
-432
-268
-44
32
84
164
128
-12
-748
-940
-1068
-1200
-1180
-1244
-1228
-1100
-992
-956
-844
-684
-656
-640
-588
-688
-1552
-1840
-2108
-2240
-2364
-2320
-2316
-2192
-1900
-1584
-1264
-892
-464
-188
84
416
836
868
916
1108
1124
1168
1220
1124
1040
1044
948
832
836
836
756
704
592
512
624
756
864
864
880
928
816
724
724
624
528
516
480
388
420
432
452
500
692
772
768
788
848
740
660
656
500
384
368
320
0
-44
-60
64
160
372
500
592
708
816
736
640
612
416
192
32
-348
-316
-208
0
128
260
452
512
528
608
640
592
560
484
132
52
5060
5648
5872
5476
4688
3648
2708
1972
1204
628
260
-32
-288
-380
-316
-320
-172
-208
-256
-332
-380
-524
-784
-1008
-1104
-1292
-1388
-1356
-1296
-1244
-1104
-896
-460
-396
-368
-256
-224
-220
-348
-604
-844
-1020
-1264
-1436
-1472
-1536
-1580
-1504
-1136
-1116
-928
-704
-608
-556
-544
-656
-912
-1216
-1536
-2012
-2432
-2688
-2880
-2944
-2128
-1776
-1408
-1036
-432
-16
352
692
880
912
916
928
784
640
580
448
160
164
196
276
404
624
656
704
816
820
800
772
772
628
528
512
0
-92
-128
0
4
64
192
192
208
320
324
304
356
404
336
308
160
32
116
212
256
212
208
224
84
-32
-48
-172
-272
-236
-192
-188
-96
-124
-140
-176
-112
-156
-220
-204
-80
-44
48
196
164
176
212
180
-60
-92
-144
-112
-272
-332
256
1828
3796
5344
6032
5892
5252
4240
3268
2448
16
-332
-572
-604
-700
-716
-620
-640
-656
-640
-704
-828
-956
-1036
-1260
-1436
-1644
-1712
-1504
-1388
-1104
-976
-832
-640
-572
-508
-416
-400
-496
-588
-640
-864
-1472
-1580
-1616
-1612
-1468
-1324
-1276
-1184
-1008
-976
-956
-864
-864
-940
-1036
-1120
-2160
-2460
-2588
-2480
-2400
-2716
-2704
-2640
-2380
-1936
-1580
-1152
-688
-336
-92
132
256
132
208
336
324
340
388
372
308
320
400
352
352
448
464
436
372
256
400
400
512
464
372
368
292
160
112
116
48
36
128
80
148
148
176
224
276
404
352
276
272
160
32
-16
-96
-208
-256
-224
-480
-524
-524
-320
-192
-28
164
196
196
240
84
-44
-160
-332
-496
-544
-368
-336
-172
4
112
164
256
292
240
164
148
-16
-288
-528
-348
848
5424
5220
4656
3908
3140
2304
1568
992
468
-16
-316
-444
-608
-672
-588
-576
-880
-1052
-1228
-1372
-1568
-1696
-1904
-2044
-2032
-2012
-1980
-1840
-1628
-1504
-1312
-1036
-800
-844
-896
-844
-976
-1164
-1340
-1664
-1936
-2064
-2188
-2300
-2272
-2144
-2064
-1916
-1420
-1456
-1340
-1228
-1244
-1424
-1696
-2000
-2492
-2960
-3340
-3712
-3968
-4028
-3884
-3648
-1984
-1568
-1152
-800
-304
-16
68
112
116
-64
-268
-368
-556
-720
-752
-768
-592
-512
-400
-160
32
260
384
400
400
400
212
16
-140
-428
-688
-848
-1232
-1244
-1136
-896
-720
-544
-320
-192
-128
-64
16
-76
-188
-256
-476
-652
-1260
-1436
-1312
-1276
-1084
-1020
-956
-784
-736
-736
-700
-624
-656
-624
-528
-576
-780
-784
-1100
-1440
-1836
-1792
-1760
-1616
-1340
-1072
-832
-560
-304
-236
-156
-32
-524
-720
-924
-1056
-1436
-1360
-160
1588
3284
4560
4864
4404
3652
2784
1920
1188
-688
-1020
-1100
-1104
-1148
-1276
-1388
-1468
-1708
-1936
-2108
-2352
-2540
-2604
-2620
-2656
-2224
-2080
-1916
-1760
-1468
-1292
-1244
-1212
-1196
-1372
-1568
-1712
-1980
-2188
-2304
-2416
-2492
-2444
-2368
-2144
-1936
-1696
-1584
-1536
-1484
-1504
-1676
-1852
-1980
-2236
-2492
-2688
-3564
-3676
-3692
-3552
-3440
-3216
-2864
-2592
-2284
-1932
-1648
-1472
-1340
-1168
-1164
-1164
-1120
-1168
-956
-812
-540
-400
-268
-64
-32
32
160
192
128
164
288
240
-1024
-1132
-1152
-1088
-944
-736
-656
-544
-368
-304
-300
-224
-204
-256
-316
-332
-912
-1036
-1120
-1052
-1072
-1040
-956
-956
-928
-796
-768
-716
-608
-560
-620
-656
-992
-1184
-1200
-1168
-1180
-1248
-1276
-1196
-1184
-1136
-1004
-1024
-1068
-1024
-1020
-1004
-1036
-1004
-960
-944
-848
-720
-576
-556
-524
-480
-396
-444
-448
-432
-332
-352
-444
-672
-656
212
2016
3936
5412
5952
5552
4640
3652
2640
1700
916
336
-204
-656
-956
-1088
-1216
-1168
-1008
-880
-860
-844
-784
-908
-1052
-1136
-1296
-1500
-1612
-1824
-1836
-1676
-1436
-1248
-1068
-828
-656
-608
-556
-476
-528
-592
-604
-736
-924
-1280
-1276
-1116
-972
-828
-656
-640
-700
-748
-896
-1164
-1392
-1596
-1932
-2240
-2448
-2700
-2540
-2256
-1792
-1372
-940
-460
-172
68
320
452
448
432
464
352
320
336
304
544
688
928
1012
1104
1268
1252
1264
1296
1216
1056
932
880
676
212
160
144
148
292
448
528
628
832
868
912
1028
1060
996
964
980
500
372
272
340
372
436
468
420
420
532
532
548
644
676
624
608
276
144
196
320
320
320
320
240
64
-76
-124
-288
-380
-252
-112
4
720
816
896
928
1060
980
880
772
580
304
0
-336
-416
576
2468
4320
5328
4576
3796
3152
2420
1876
1236
708
368
96
-128
-208
-192
-284
-364
-384
-1100
-1248
-1356
-1280
-1328
-1328
-1216
-1212
-1148
-972
-832
-764
-652
-480
-464
-448
-652
-828
-816
-800
-828
-908
-944
-908
-992
-1036
-928
-864
-816
-700
-540
-480
-380
-432
-508
-592
-640
-844
-1184
-1548
-1852
-2240
-2556
-2668
-2704
-2620
-2348
-1980
-544
-240
4
336
612
864
960
916
868
852
704
592
592
484
416
468
564
596
704
944
1044
1172
1316
1360
1296
1284
1220
1024
836
736
516
372
0
-112
80
160
400
480
576
756
832
836
900
948
868
820
864
724
320
224
160
128
160
244
196
180
224
160
144
260
384
420
480
564
180
-12
-188
-144
-192
-144
-16
-12
336
548
496
240
164
160
112
164
276
36
-28
240
1396
3156
4852
5988
6100
5476
4544
3392
2388
1604
928
320
-604
-608
-556
-444
-128
68
180
272
288
68
-108
-252
-592
-1356
-1916
-2272
-2304
-2128
-1884
-1484
-1040
-560
-204
32
276
500
500
420
308
-32
-460
-864
-2284
-2432
-2428
-2256
-2096
-1872
-1548
-1292
-1052
-800
-544
-464
-384
-320
-508
-780
-2416
-2844
-2924
-3004
-2812
-2588
-2236
-1712
-1216
-736
-220
256
576
868
1184
1316
1168
964
784
596
420
288
16
-192
-240
-332
-364
-256
-112
-12
176
452
852
916
948
1056
1296
1316
1008
464
32
-188
-412
-572
-572
-460
-416
-300
224
212
404
608
772
816
804
816
608
384
228
-16
-288
-476
-588
-748
-640
-496
-304
-108
244
468
532
580
624
420
164
-48
-348
-576
-668
-720
-732
-672
-588
-380
-172
84
260
352
416
384
48
48
1108
2768
4324
5408
3344
2528
1824
1344
724
240
-76
-368
-576
-544
-320
-204
-448
-556
-684
-828
-1392
-1648
-1612
-1708
-1676
-1728
-1744
-1660
-1580
-1516
-1408
-1212
-1104
-976
-796
-716
-828
-928
-1040
-1152
-1248
-1292
-1452
-1568
-1584
-1632
-1692
-1660
-1520
-1488
-1436
-1296
-1228
-1280
-1340
-1292
-1424
-1616
-1820
-2160
-2476
-2640
-2816
-2880
-2784
-2576
-2332
-2012
-768
-592
-252
84
352
496
624
740
692
640
628
484
368
352
276
164
180
228
276
308
516
608
628
692
692
580
500
500
340
212
180
116
-108
-156
-192
-108
-28
128
112
132
180
212
176
164
224
132
68
116
-156
-192
-208
-96
-144
-176
-156
-272
-320
-268
-256
-256
-224
-156
-252
-332
-668
-816
-704
-604
-464
-384
-288
-156
-188
-208
-144
-188
-268
-284
-300
-396
-896
-316
980
2528
4292
5316
5380
4772
3888
2800
1844
1092
352
-256
-652
-944
-1392
-1376
-1356
-1196
-1116
-1052
-1136
-1340
-1548
-1724
-2016
-2236
-2336
-2444
-2460
-2352
-1936
-1804
-1632
-1360
-1216
-1120
-1024
-1088
-1232
-1388
-1516
-1772
-1996
-2112
-2272
-2336
-1920
-2156
-2284
-2220
-1952
-1808
-1676
-1504
-1440
-1516
-1628
-1760
-2092
-2428
-2700
-3088
-3728
-3660
-3488
-3200
-2796
-2300
-1948
-1616
-1260
-1004
-880
-764
-684
-732
-764
-736
-912
-908
-864
-640
-508
-380
-192
-172
-112
-16
-48
-156
-220
-288
-464
-592
-924
-1036
-956
-812
-700
-684
-640
-540
-540
-528
-428
-432
-496
-476
-460
-572
-816
-864
-896
-924
-796
-720
-732
-716
-652
-700
-716
-640
-688
-764
-796
-832
-1148
-1148
-1132
-956
-828
-688
-716
-816
-912
-988
-1196
-1356
-1340
-1344
-1308
-1152
-880
-892
-784
-624
-592
-588
-540
-560
-684
-880
-1148
-1088
68
2016
3680
4756
3008
2032
1396
708
116
-496
-972
-1232
-1452
-1584
-1564
-1456
-1456
-1456
-1408
-1520
-2080
-2252
-2384
-2448
-2448
-2368
-2396
-2348
-2188
-2092
-2032
-1916
-1756
-1708
-1644
-1532
-1840
-1948
-2048
-2000
-2076
-2140
-2144
-2252
-2316
-2268
-2272
-2256
-2140
-2016
-1996
-1936
-1964
-2112
-2080
-2080
-2204
-2460
-2732
-2992
-3356
-3628
-3712
-3744
-3648
-3376
-3036
-2668
-1248
-988
-764
-576
-304
-188
-240
-288
-320
-492
-624
-652
-748
-800
-720
-636
-320
-256
-192
-32
80
240
272
228
208
164
-12
-160
-224
-412
-528
-556
-604
-544
-416
-176
-32
112
308
608
720
452
256
20
-128
-156
-224
-316
-400
-496
-304
-256
-48
-16
20
96
80
-28
-108
-96
-204
-224
-140
-128
-204
-252
-288
-336
-396
-320
-320
-236
-44
116
212
336
464
436
404
608
100
-64
-208
-272
-460
84
1748
3668
5344
6400
6452
5732
4768
3792
2772
1908
-256
-592
-640
-588
-524
-496
-428
-304
-364
-432
-480
-624
-816
-924
-1024
-1212
-1340
-1292
-1212
-1100
-844
-672
-560
-428
-288
-320
-352
-316
-416
-528
-608
-704
-1168
-1248
-1292
-1180
-1084
-892
-816
-780
-688
-556
-572
-560
-512
-636
-748
-848
-1936
-2176
-2332
-2332
-2236
-2000
-1868
-1948
-1888
-1660
-1260
-928
-556
-108
208
448
964
880
1056
1060
1184
1124
1072
1044
948
820
784
820
740
724
852
996
1056
1088
1188
1188
1120
1076
1104
1056
916
832
836
912
1024
832
516
404
292
276
368
532
624
708
804
944
960
928
916
960
884
736
596
560
436
288
96
64
-32
-60
52
80
96
228
416
500
640
816
788
724
64
-236
-252
-316
-188
-156
-44
192
320
404
560
660
676
720
832
784
4724
4612
5952
6308
5796
4912
4016
3012
2176
1536
944
404
68
-80
-224
-256
-156
-268
-192
-128
-192
-384
-588
-768
-1056
-1296
-1372
-1436
-1484
-1404
-1232
-1132
-476
-348
-220
-112
112
160
64
-44
-156
-416
-668
-816
-1052
-1244
-1292
-1292
-1120
-1056
-956
-752
-608
-444
-448
-572
-732
-940
-1360
-1788
-2108
-2492
-2784
-2892
-2416
-2108
-1696
-1152
-640
-144
340
656
820
964
1028
912
772
688
484
356
128
64
256
368
628
720
820
996
1024
1040
1060
1028
896
788
736
544
64
4
-16
0
100
244
288
372
532
560
576
644
672
596
548
564
164
84
0
64
32
68
132
64
32
80
4
16
80
132
160
244
324
196
224
260
144
-92
-252
-352
-448
-432
-300
-268
-172
16
128
180
436
448
464
420
400
96
212
1364
3104
4580
5524
5680
4964
3952
3008
2100
20
16
-16
-288
-604
-492
-400
-300
-108
-12
-60
-176
-320
-668
-1008
-1264
-2108
-2128
-2032
-1776
-1564
-1312
-988
-812
-604
-352
-224
-192
-156
-128
-316
-544
-1616
-1868
-1840
-1808
-1712
-1660
-1548
-1328
-1228
-1100
-908
-812
-796
-780
-768
-960
-2028
-2364
-2656
-2892
-2992
-3008
-2992
-2832
-2496
-2176
-1788
-1292
-896
-560
-220
112
384
352
304
400
404
468
452
384
372
420
340
324
400
400
368
420
292
260
304
432
420
416
448
400
292
224
224
132
84
116
48
16
48
-44
144
208
356
352
304
320
256
132
64
16
-140
-224
-176
-252
-284
-256
-208
-128
20
228
292
336
388
272
52
-108
-252
-524
-716
-732
-528
-412
-272
32
212
388
544
516
500
516
416
228
20
-380
-620
116
5060
5040
4740
4228
3408
2544
1812
1252
672
228
4
-256
-396
-384
-368
-412
-780
-940
-1116
-1296
-1392
-1580
-1788
-1884
-1872
-1888
-1820
-1612
-1488
-1296
-1052
-816
-368
-364
-444
-448
-556
-652
-908
-1228
-1468
-1632
-1852
-1968
-1932
-1920
-1820
-1596
-1132
-1052
-944
-736
-720
-800
-928
-1248
-1664
-2032
-2460
-2896
-3184
-3280
-3296
-3180
-1980
-1696
-1196
-828
-336
-64
128
308
272
192
128
0
-76
-28
-76
-480
-704
-608
-460
-268
16
340
480
580
724
704
596
512
324
20
-220
-352
-972
-1008
-988
-796
-684
-508
-272
-176
-60
116
144
176
224
192
36
-128
-908
-1136
-1164
-1116
-1084
-1072
-992
-876
-880
-832
-704
-672
-608
-444
-352
-320
-636
-784
-928
-1104
-1164
-1280
-1356
-1260
-1120
-1008
-848
-604
-512
-416
-268
-204
-432
-528
-716
-924
-1200
-704
688
2496
4052
4836
4704
4000
3124
2132
1252
576
-1168
-1372
-1456
-1360
-1356
-1308
-1196
-1260
-1372
-1488
-1692
-1980
-2224
-2396
-2588
-2672
-2556
-2544
-2284
-2044
-1772
-1616
-1484
-1296
-1280
-1296
-1280
-1392
-1580
-1724
-1840
-2060
-2508
-2528
-2496
-2412
-2156
-1984
-1888
-1788
-1660
-1708
-1756
-1744
-1888
-2048
-2224
-2476
-3548
-3728
-3888
-3868
-3788
-3520
-3244
-2960
-2588
-2176
-1868
-1552
-1228
-1084
-976
-832
-1008
-1024
-976
-784
-700
-588
-396
-336
-284
-160
-80
-92
-64
4
-76
-144
-640
-860
-800
-816
-764
-816
-812
-732
-764
-748
-656
-588
-540
-480
-400
-464
-636
-716
-784
-848
-816
-812
-908
-960
-892
-940
-940
-844
-780
-768
-716
-608
-748
-832
-928
-892
-940
-972
-1024
-1116
-1148
-1100
-1164
-1232
-1196
-1200
-1228
-1248
-1244
-1152
-896
-560
-348
-188
-44
-76
-252
-400
-496
-704
-864
-908
-1072
-1408
1648
3152
4368
5060
5264
4624
3684
2772
1856
948
180
-384
-956
-1100
-1232
-1344
-2160
-2284
-2448
-2496
-2608
-2656
-2784
-2924
-2960
-3052
-3180
-3296
-3312
-3404
-3440
-3376
-3196
-3100
-2956
-2688
-2528
-2396
-2220
-2236
-2252
-2268
-2336
-2496
-2592
-2620
-2764
-2844
-2780
-2812
-2572
-2412
-2172
-2092
-2016
-1920
-2012
-2144
-2284
-2528
-2880
-3180
-3388
-3644
-3468
-3212
-2892
-2512
-1980
-1468
-1100
-752
-400
-256
-172
-80
-92
-204
-268
-268
-464
-464
-444
-256
-112
100
244
256
276
368
308
276
308
256
132
64
-220
-320
-252
-112
-48
0
116
196
192
208
292
256
240
304
288
212
80
32
32
16
180
192
228
320
356
304
288
356
292
240
256
148
-220
-224
-220
-92
36
208
192
196
272
272
116
0
20
-32
-16
128
176
160
148
288
276
292
356
288
244
208
-48
-156
724
2608
4464
5872
4660
3728
3072
2404
1712
1024
480
144
-208
-384
-368
-348
-336
-284
-188
-220
-476
-620
-752
-864
-876
-908
-1004
-1020
-944
-956
-896
-748
-656
-604
-480
-320
-316
-368
-444
-380
-400
-396
-460
-608
-688
-688
-796
-844
-764
-768
-764
-700
-736
-828
-812
-752
-880
-1068
-1248
-1552
-1936
-2240
-2380
-2524
-2480
-2236
-1984
-1632
-160
-12
388
592
912
996
1008
1028
928
768
676
640
484
432
512
500
800
864
960
1056
1168
1316
1268
1204
1220
1108
932
836
720
544
448
468
368
388
420
628
740
880
1060
1060
1088
1168
1120
1044
1012
896
676
516
84
-28
64
224
356
384
420
500
448
436
544
532
608
708
752
656
224
64
-76
-160
-76
-32
4
132
240
256
288
404
384
384
436
452
304
80
-156
116
1396
3392
5056
6084
6288
5668
4624
3588
2708
1796
1044
544
-496
-528
-464
-240
-124
4
164
128
36
-108
-368
-768
-1148
-1408
-1708
-1872
-1840
-1792
-1472
-1244
-908
-716
-512
-268
-220
-192
-160
-256
-476
-684
-832
-1040
-1152
-1292
-1340
-1420
-1468
-1440
-1308
-1212
-1148
-1040
-880
-800
-784
-796
-816
-1004
-1324
-1676
-1996
-2348
-2720
-2972
-3004
-2924
-2736
-2432
-1968
-1504
-1100
-684
-252
112
336
496
564
560
496
480
528
436
368
384
324
272
292
320
272
288
388
324
452
624
720
704
688
688
528
400
372
256
144
144
128
84
528
516
592
672
720
736
628
420
276
180
-32
-192
-252
-364
-460
-460
-416
-400
-208
52
212
372
532
544
388
228
84
-220
-492
-592
-688
-732
-284
-272
4
112
368
448
512
580
544
388
452
228
-176
64
1504
3232
4880
4228
3520
2932
2244
1696
1092
624
324
84
-144
-256
-272
-412
-508
-560
-1436
-1616
-1740
-1696
-1756
-1728
-1568
-1500
-1376
-1196
-1056
-972
-732
-396
-236
-476
-1052
-1196
-1104
-1116
-1008
-1056
-1088
-1056
-1120
-1180
-1152
-1132
-1180
-1164
-1068
-1100
-1184
-1244
-1296
-1344
-1404
-1484
-1712
-1936
-2112
-2384
-2608
-2688
-2704
-2668
-2476
-2140
-1024
-780
-560
-224
-48
132
260
212
164
208
112
52
100
116
100
144
304
272
400
576
672
660
708
708
608
512
512
340
196
144
64
-32
-16
0
48
112
308
320
336
388
372
256
148
116
-32
-140
-128
-176
-256
-252
-240
-156
-92
36
-12
-64
-96
-192
-332
-364
-300
-352
-364
-288
-556
-652
-704
-592
-544
-432
-220
-128
-32
116
160
112
112
128
20
-32
-304
-608
-732
-480
688
2512
4272
5492
5684
5140
4288
3220
2244
1460
768
112
-988
-1056
-1056
-1024
-828
-732
-764
-800
-864
-1104
-1356
-1536
-1824
-2064
-2204
-2284
-2208
-2124
-1980
-1696
-1436
-1132
-960
-896
-828
-784
-908
-1056
-1164
-1420
-1644
-1776
-2284
-2288
-2208
-2000
-1872
-1760
-1568
-1488
-1472
-1436
-1404
-1520
-1664
-1792
-2080
-2400
-3488
-3692
-3580
-3472
-3136
-2860
-2512
-2108
-1792
-1520
-1228
-1008
-924
-848
-732
-752
-768
-768
-720
-636
-480
-284
-240
-160
-28
-32
-44
-28
-60
-172
-256
-320
-956
-1056
-1116
-1004
-1004
-912
-828
-848
-848
-768
-796
-752
-656
-620
-672
-688
-860
-976
-924
-812
-768
-796
-764
-748
-800
-828
-768
-848
-912
-908
-940
-1020
-1232
-1260
-1232
-1200
-976
-896
-816
-732
-736
-704
-624
-716
-1232
-1568
-1660
-1632
-988
-828
-700
-480
-316
-144
-160
-252
-316
-400
-656
-1024
-1376
-1372
-236
1648
4528
3936
3204
2592
1744
996
416
-160
-652
-956
-1180
-1404
-1504
-1500
-1584
-1664
-2252
-2492
-2464
-2528
-2496
-2512
-2476
-2348
-2300
-2240
-2092
-1952
-1884
-1772
-1616
-1612
-1724
-1808
-1904
-1980
-2012
-2016
-2112
-2172
-2140
-2192
-2188
-2064
-1984
-1964
-1904
-1772
-1836
-1932
-2032
-2016
-2156
-2284
-2512
-2860
-3164
-3376
-3644
-3808
-3792
-3680
-3500
-3180
-1900
-1676
-1312
-956
-720
-576
-464
-460
-592
-720
-768
-908
-976
-924
-908
-892
-480
-396
-284
-176
84
148
160
160
64
-144
-348
-464
-704
-908
-988
-1088
-1024
-956
-860
-684
-476
-224
-188
-140
-44
-32
-140
-252
-332
-540
-748
-848
-1248
-1244
-1180
-944
-812
-636
-384
-320
-256
-172
-204
-316
-380
-432
-592
-684
-860
-992
-928
-844
-796
-832
-864
-828
-832
-704
-432
-268
-112
84
176
148
-172
-268
-332
-396
-336
-480
-768
-540
740
2644
4496
5872
6208
5792
5008
4020
992
484
32
-224
-492
-560
-700
-748
-736
-764
-880
-940
-956
-1100
-1228
-1260
-1536
-1536
-1488
-1280
-1152
-992
-796
-780
-752
-668
-672
-720
-748
-736
-848
-924
-1180
-1308
-1196
-1068
-956
-912
-848
-720
-748
-736
-652
-704
-752
-720
-768
-912
-1516
-1728
-1948
-2172
-2268
-2400
-2508
-2428
-2256
-2096
-1824
-1392
-1056
-704
-288
20
640
688
676
784
832
932
868
820
848
804
704
656
692
628
624
724
672
688
724
912
916
916
976
848
756
740
640
496
420
448
352
304
272
208
352
500
656
724
788
896
848
788
832
768
640
596
528
384
128
96
96
96
208
196
112
84
148
144
196
336
320
336
404
404
116
100
96
256
388
624
692
708
772
800
704
656
720
644
608
644
176
868
2256
3988
5668
6676
6816
6052
5008
3988
2976
2020
1252
676
128
-208
-496
-540
-320
-144
0
16
-28
-64
-288
-512
-688
-940
-1200
-1340
-1344
-1420
-1052
-928
-780
-492
-48
228
20
-124
-156
-316
-460
-508
-620
-768
-876
-928
-1232
-1248
-1244
-1084
-956
-780
-672
-672
-656
-620
-720
-848
-972
-1244
-1596
-1856
-2656
-2684
-2492
-2140
-1788
-1408
-960
-604
-320
-28
288
436
564
768
804
848
880
784
944
932
1040
996
976
1028
992
916
928
896
772
704
736
656
608
592
608
644
740
864
832
788
804
692
612
592
528
372
292
308
180
192
212
388
484
628
692
644
596
624
484
340
288
160
-12
-108
-172
-160
32
240
320
368
416
372
180
20
-12
-80
-80
48
116
144
340
352
384
420
564
548
500
432
132
-96
532
2208
3952
5332
6052
5776
2468
1808
1188
752
292
-12
-316
-480
-476
-476
-496
-460
-368
-416
-480
-508
-1200
-1376
-1484
-1408
-1452
-1436
-1324
-1296
-1244
-1100
-1004
-944
-844
-688
-700
-672
-912
-1136
-1152
-1152
-1184
-1308
-1388
-1388
-1484
-1536
-1472
-1456
-1472
-1404
-1324
-1340
-1392
-1472
-1564
-1696
-1792
-1996
-2288
-2492
-2592
-2764
-2796
-2636
-2464
-2220
-1840
-1456
-380
-192
-32
208
416
660
756
768
784
784
672
576
564
448
340
340
48
20
52
196
256
320
436
464
452
544
564
484
420
452
336
256
-44
-176
-80
-80
0
-48
-48
52
4
0
84
132
132
192
308
260
196
144
96
48
36
-16
-188
-316
-332
-400
-384
-288
-240
-268
-240
-160
-304
-284
-220
0
160
340
416
352
276
272
96
-60
-128
-240
-380
-384
-444
-716
-604
644
2704
4480
5556
5744
5264
4356
3344
2448
1728
1056
448
-32
-304
-512
-672
-736
-700
-688
-768
-844
-892
-976
-1184
-1360
-1484
-1520
-1612
-1648
-1632
-1520
-1564
-1532
-1328
-1200
-1104
-924
-736
-688
-688
-656
-784
-912
-1004
-1164
-1660
-1692
-1724
-1628
-1520
-1328
-1228
-1136
-1008
-960
-1008
-1040
-1040
-1228
-1424
-1600
-3004
-3068
-2764
-2332
-1820
-1452
-1132
-780
-576
-476
-348
-220
-236
-208
-96
-124
84
148
256
388
564
740
736
724
784
736
628
564
528
368
256
228
-156
-176
-172
-16
20
80
212
208
176
208
148
64
52
-12
-140
-220
-348
-416
-288
-156
-44
-32
0
64
-32
-108
-128
-288
-460
-540
-636
-768
-768
-732
-672
-640
-524
-528
-636
-716
-796
-976
-1104
-1072
-1084
-976
-800
-668
-576
-556
-560
-492
-464
-364
-396
-592
-892
-988
-240
1472
3344
4628
5168
4928
1616
944
400
68
-412
-768
-924
-1120
-1200
-1180
-1164
-1228
-1280
-1324
-1532
-1744
-2496
-2716
-2640
-2604
-2476
-2412
-2256
-2028
-1904
-1760
-1564
-1452
-1420
-1360
-1296
-1408
-1904
-2048
-2144
-2220
-2172
-2156
-2172
-2140
-2032
-2028
-1984
-1852
-1792
-1772
-1692
-1644
-2028
-2204
-2396
-2492
-2732
-2908
-3164
-3440
-3596
-3552
-3504
-3324
-2956
-2652
-2272
-1824
-928
-816
-684
-492
-444
-416
-352
-412
-496
-496
-528
-624
-620
-508
-496
-476
-332
-400
-240
-220
-124
-176
-268
-272
-460
-576
-636
-720
-864
-912
-876
-924
-828
-796
-720
-636
-460
-396
-432
-476
-460
-556
-656
-700
-812
-944
-988
-972
-1068
-1052
-1008
-844
-752
-640
-636
-732
-828
-892
-1040
-1116
-1040
-1088
-1136
-1148
-1424
-1520
-1536
-1376
-1248
-1100
-860
-732
-688
-636
-588
-672
-752
-752
-892
-960
-1264
-1552
-1388
-688
1152
3072
4628
5492
5312
4532
3536
2452
1380
484
-208
-880
-1932
-1936
-1872
-1776
-1564
-1376
-1344
-1356
-1328
-1468
-1648
-1772
-1948
-2172
-2300
-2336
-2444
-2384
-2336
-2124
-1900
-1632
-1472
-1436
-1408
-1360
-1484
-1612
-1664
-1824
-2000
-2108
-2460
-2540
-2460
-2284
-2188
-2096
-1952
-1872
-1872
-1852
-1808
-1920
-2044
-2096
-2288
-2508
-3260
-3452
-3312
-3228
-2924
-2652
-2316
-1868
-1504
-1212
-892
-576
-412
-252
-48
-28
68
32
32
48
116
240
196
192
272
256
196
228
272
208
180
228
-28
-64
-80
64
84
144
256
260
308
432
384
400
468
512
468
464
244
116
164
208
180
100
80
100
32
4
68
48
84
180
256
244
272
224
176
100
192
192
148
196
208
100
48
64
-48
-128
-144
-188
64
208
324
544
692
852
884
788
960
996
740
340
144
-160
-508
-368
5396
6224
6416
6240
5412
4436
3568
2676
1808
1108
592
84
-240
-380
-524
-576
-588
-720
-604
-636
-544
-652
-780
-816
-912
-1024
-1052
-988
-1004
-944
-780
-736
-412
-384
-332
-288
-252
-192
-332
-448
-512
-672
-844
-940
-940
-1008
-1040
-960
-880
-864
-832
-684
-668
-668
-656
-860
-1084
-1292
-1584
-1920
-2156
-2348
-2508
-2492
-1632
-1420
-972
-512
-76
180
404
608
612
612
676
608
512
544
564
544
768
852
932
1012
1236
1328
1300
1296
1300
1172
1060
1024
848
692
656
592
404
368
356
484
596
788
852
820
816
848
768
720
736
564
468
452
196
192
256
416
452
516
660
672
608
580
564
384
240
176
-12
-112
-128
-204
-44
-16
112
68
-12
-12
-76
-108
20
160
240
352
516
528
560
516
512
544
592
612
308
52
624
2112
3936
5476
6208
5972
5220
4352
1268
752
324
144
-124
-220
-220
-288
-284
-188
-252
-316
-332
-448
-668
-860
-1456
-1568
-1484
-1308
-1148
-1004
-780
-588
-480
-380
-208
-188
-188
-160
-252
-412
-976
-1104
-1196
-1260
-1152
-1120
-1120
-1020
-928
-896
-828
-720
-764
-780
-736
-768
-1356
-1568
-1820
-1964
-2172
-2284
-2448
-2512
-2400
-2256
-2092
-1836
-1456
-1152
-828
-416
352
420
512
724
800
848
932
836
768
756
720
628
608
672
596
592
532
420
576
612
736
704
640
656
548
464
436
356
240
180
212
148
240
256
288
336
452
532
480
452
512
436
356
368
304
160
84
64
-208
-272
-320
-224
-192
-60
48
68
132
256
224
176
160
68
-128
-300
-492
-496
-320
-96
64
192
336
400
352
336
356
240
148
112
-112
-476
3684
4896
5616
5684
5316
4420
3504
2720
1936
1188
612
228
-172
-320
-256
-224
-864
-892
-924
-844
-828
-764
-844
-992
-1100
-1228
-1424
-1564
-1564
-1628
-1612
-1484
-1216
-1136
-1036
-796
-704
-636
-528
-608
-704
-784
-924
-1148
-1308
-1328
-1452
-1520
-1408
-1424
-1216
-1132
-972
-972
-988
-992
-1200
-1440
-1660
-1948
-2316
-2608
-2752
-2896
-2348
-2076
-1760
-1392
-860
-416
-144
80
308
352
368
388
320
180
112
116
-16
4
48
256
416
612
752
772
816
900
816
736
720
608
420
276
-224
-336
-284
-144
-80
32
180
272
288
324
452
436
416
464
404
288
-96
-188
-256
-316
-204
-220
-208
-140
-112
-172
-204
-144
-204
-208
-96
-48
-160
-268
-332
-352
-396
-412
-572
-624
-528
-464
-396
-240
-32
32
100
228
176
116
52
112
-32
-304
-384
272
1904
3776
5108
5620
5396
4692
3696
2784
420
-12
-172
-236
-304
-380
-400
-380
-508
-636
-700
-880
-1136
-1340
-1484
-1724
-2032
-1996
-1888
-1756
-1440
-1200
-1040
-864
-668
-636
-636
-588
-652
-816
-956
-1104
-1760
-1776
-1536
-1344
-1600
-1692
-1580
-1516
-1372
-1152
-1068
-1008
-940
-1008
-1196
-1360
-2572
-2960
-3152
-3260
-3420
-3452
-3324
-3116
-2876
-2512
-2048
-1692
-1312
-880
-608
-480
-348
-384
-432
-480
-412
-460
-476
-384
-332
-336
-272
-112
-92
-60
80
84
-96
-176
-252
-272
-300
-284
-412
-524
-544
-592
-688
-716
-668
-716
-688
-476
-336
-352
-396
-396
-432
-528
-608
-624
-656
-764
-540
-444
-604
-896
-1020
-1024
-912
-860
-816
-748
-604
-556
-604
-652
-604
-608
-672
-720
-732
-844
-1020
-1180
-1244
-1372
-1612
-1676
-1500
-1356
-1136
-816
-576
-416
-252
-156
-220
-300
-336
-528
-1168
-1472
-1568
-1004
676
2704
4244
5092
5168
4448
3460
2544
1680
836
148
-364
-1568
-1788
-1628
-1552
-1600
-1808
-2028
-2144
-2368
-2524
-2524
-2524
-2508
-2380
-2172
-2048
-1548
-1500
-1440
-1392
-1280
-1296
-1452
-1628
-1776
-2012
-2192
-2240
-2336
-2416
-2348
-2252
-1952
-1888
-1852
-1692
-1596
-1504
-1568
-1788
-2028
-2256
-2652
-3020
-3292
-3616
-3868
-3952
-3452
-3164
-2768
-2268
-1840
-1452
-1068
-832
-748
-688
-652
-768
-860
-892
-1024
-1100
-864
-864
-608
-492
-204
-76
16
116
96
-32
-124
-220
-480
-732
-848
-1040
-1068
-1280
-1328
-1232
-1056
-752
-572
-368
-156
-44
-60
-80
-96
-256
-432
-556
-1308
-1408
-1440
-1296
-1232
-1116
-896
-800
-684
-512
-412
-380
-348
-320
-464
-604
-1148
-1328
-1248
-1164
-1088
-1132
-1164
-1132
-1184
-1216
-1164
-1180
-1168
-1056
-848
-732
-476
-496
-540
-576
-524
-540
-640
-716
-748
-992
-1292
-956
384
2256
4004
5140
3408
2612
1860
1296
592
64
-464
-956
-1260
-1404
-1548
-1612
-1552
-1600
-1696
-1708
-2108
-2204
-2208
-2096
-2060
-1980
-1840
-1760
-1712
-1600
-1452
-1440
-1436
-1356
-1372
-1360
-1536
-1660
-1552
-1568
-1456
-1484
-1468
-1356
-1328
-1328
-1264
-1248
-1308
-1328
-1292
-1372
-1548
-1616
-1660
-1696
-1696
-1696
-1888
-2096
-2240
-2464
-2556
-2496
-2384
-2272
-2048
-1724
-780
-576
-384
-48
160
352
496
500
544
640
592
564
628
640
596
624
500
420
484
612
640
608
656
672
592
544
580
496
436
480
448
368
468
496
512
516
672
640
624
628
596
480
432
468
356
292
336
336
308
320
308
416
496
612
548
480
480
420
244
116
80
-44
224
388
-80
-96
-60
112
116
148
288
320
372
484
560
484
448
448
276
160
-32
-128
20
36
-12
-96
628
2448
4388
6000
6864
6720
5860
4816
3860
2832
256
-112
-352
-496
-496
-444
-448
-400
-272
-272
-316
-320
-412
-576
-704
-768
-1244
-1296
-1308
-1152
-1024
-844
-688
-636
-540
-384
-348
-304
-224
-268
-380
-444
-816
-944
-924
-800
-768
-748
-668
-640
-684
-688
-620
-700
-748
-720
-784
-924
-1596
-1888
-1920
-2064
-2048
-2096
-2048
-1872
-1644
-1420
-1132
-764
-512
-272
32
192
500
544
580
640
756
932
948
980
1092
1108
1076
1092
1168
1072
980
1024
692
624
580
704
688
708
768
688
640
708
640
576
576
560
480
468
432
340
464
612
704
720
752
832
756
692
724
624
580
596
564
448
48
-48
-112
-172
-32
36
80
196
304
276
276
320
228
116
48
-48
-12
48
96
256
388
564
576
564
656
676
608
580
608
368
68
340
5648
6144
6048
5652
4688
3696
2880
1984
1248
692
208
-224
-476
-540
-640
-672
-636
-752
-652
-672
-656
-816
-972
-1056
-1276
-1408
-1420
-1420
-1452
-1404
-1232
-1136
-624
-544
-476
-412
-284
-236
-348
-464
-540
-748
-944
-1072
-1212
-1372
-1424
-1388
-1324
-1260
-1184
-976
-880
-736
-716
-848
-1036
-1228
-1632
-2044
-2380
-2704
-2960
-3040
-2320
-2044
-1596
-1088
-640
-220
196
432
512
596
688
596
496
480
384
244
68
80
116
180
420
516
612
752
804
772
756
800
672
580
576
464
64
4
-44
-16
36
180
180
208
292
308
260
292
388
340
320
368
80
20
0
100
100
116
176
52
-44
-64
-128
-240
-288
-236
-240
-176
-64
-156
-64
36
36
-76
-140
-96
-144
-128
-44
-16
-64
-60
4
-64
-108
-96
-64
-108
-172
-188
532
2240
4148
5460
6004
5796
4928
3812
2820
1936
-300
-620
-832
-844
-800
-640
-528
-476
-400
-300
-348
-448
-508
-704
-960
-1164
-1900
-1980
-1916
-1712
-1568
-1408
-1168
-1004
-908
-796
-624
-624
-636
-588
-704
-848
-1328
-1532
-1440
-1484
-1372
-1388
-1388
-1324
-1308
-1344
-1308
-1216
-1260
-1276
-1228
-1328
-1964
-2160
-2320
-2416
-2464
-2400
-2380
-2272
-1996
-1744
-1532
-1232
-912
-732
-508
-236
84
128
180
368
432
516
628
580
560
596
512
432
452
420
304
228
128
52
176
320
400
400
416
448
352
288
304
176
112
112
68
0
48
84
148
196
400
436
400
404
368
228
128
80
-80
-176
-160
-208
-384
-400
-416
-300
-160
52
112
160
180
100
-64
-188
-272
-512
-704
-732
-528
-432
-320
-80
4
100
228
180
116
116
64
-76
-284
-572
-588
452
5060
4868
4400
3792
2852
1904
1088
468
-156
-624
-876
-1116
-1264
-1244
-1200
-1232
-1484
-1600
-1708
-1824
-1856
-1952
-2108
-2204
-2208
-2284
-2256
-2108
-2032
-1920
-1740
-1568
-1324
-1360
-1420
-1376
-1452
-1500
-1664
-1916
-2060
-2160
-2288
-2332
-2224
-2204
-2108
-1904
-1564
-1504
-1436
-1292
-1328
-1456
-1596
-1920
-2288
-2636
-3008
-3392
-3644
-3692
-3420
-3136
-2480
-2208
-1680
-1308
-796
-492
-304
-160
-256
-384
-492
-640
-876
-1056
-1088
-1200
-992
-880
-752
-588
-348
-76
0
48
148
64
-32
-108
-256
-492
-672
-768
-1212
-1212
-1164
-960
-832
-672
-464
-396
-320
-208
-268
-320
-336
-416
-608
-764
-1244
-1360
-1280
-1148
-1040
-976
-844
-684
-688
-672
-608
-700
-784
-848
-924
-1024
-1104
-1180
-1212
-1228
-1104
-1120
-1216
-1244
-1196
-1148
-1040
-844
-768
-704
-592
-588
-876
-940
-1004
-956
-960
-1004
-1296
-1148
160
2048
3700
4804
5120
4496
3488
2484
-608
-1084
-1420
-1532
-1680
-1712
-1596
-1584
-1520
-1408
-1340
-1404
-1500
-1552
-1772
-1980
-2556
-2720
-2588
-2476
-2272
-2160
-2016
-1804
-1724
-1632
-1516
-1456
-1488
-1488
-1440
-1536
-1856
-1932
-1980
-1996
-1932
-1904
-1968
-2000
-1948
-2012
-2048
-2000
-1984
-2028
-2028
-1920
-1968
-2124
-2332
-2508
-2800
-3136
-3404
-3472
-3500
-3452
-3276
-2912
-2556
-2240
-1920
-1564
-1280
-1116
-976
-816
-732
-732
-720
-652
-620
-636
-592
-476
-364
-348
-300
-188
-60
-60
-156
-144
-208
16
128
-44
-368
-560
-572
-604
-640
-572
-428
-384
-176
-144
-112
-80
52
100
20
-44
-44
-172
-256
-268
-332
-384
-332
-256
180
4
160
352
580
560
100
-272
-656
-880
-860
-848
-716
-464
-256
-124
164
132
112
68
208
240
228
260
240
100
-28
-60
-192
-256
-204
-160
-28
-172
-124
688
2496
4564
6064
6708
6528
5604
4368
3172
2192
1216
436
-92
-1024
-988
-832
-524
-288
-76
164
192
164
100
-112
-460
-784
-1036
-1356
-1568
-1712
-1692
-1376
-1148
-796
-556
-316
-12
100
192
276
260
100
-76
-240
-560
-1356
-1456
-1504
-1484
-1292
-1088
-976
-828
-608
-524
-464
-384
-448
-640
-848
-1100
-2512
-2736
-2860
-2752
-2576
-2284
-1936
-1596
-1136
-620
-240
112
500
740
848
928
692
532
516
576
500
480
544
548
496
528
644
676
740
900
960
964
1008
820
932
884
944
852
724
672
528
352
276
308
272
292
436
512
816
880
960
1040
1120
1216
1120
1024
976
816
596
436
368
224
132
160
32
64
128
372
528
752
996
1044
1040
1056
932
720
496
304
4
-144
-76
-76
128
356
592
692
800
944
928
916
944
772
400
164
708
2164
6096
5696
5024
4240
3440
2672
1920
1344
944
500
244
192
128
96
148
208
-300
-540
-780
-892
-1100
-1216
-1344
-1488
-1532
-1440
-1404
-1276
-1024
-848
-688
-476
-44
-76
-28
80
-12
-144
-300
-560
-864
-1072
-1164
-1328
-1356
-1228
-1152
-1040
-576
-620
-428
-412
-300
-400
-608
-832
-1248
-1760
-2240
-2608
-2976
-3136
-3036
-2880
-1344
-924
-492
-64
420
880
1088
1188
1280
1168
948
772
612
372
228
224
288
368
496
772
944
1088
1252
1280
1316
1408
1312
1168
1104
960
708
512
-96
-236
-144
0
116
240
404
608
660
740
896
884
864
900
836
676
212
96
16
-60
52
64
64
132
176
144
160
272
304
384
576
660
464
324
148
32
-112
-144
-284
-300
-224
-176
-172
-124
16
16
64
192
244
196
80
48
228
1456
3376
4980
5984
6164
5536
4496
3460
2576
1684
964
-464
-684
-588
-508
-332
-268
-204
-140
-300
-508
-672
-940
-1260
-1516
-1644
-1824
-1356
-1248
-1408
-1632
-1408
-1088
-908
-732
-512
-476
-476
-464
-560
-764
-972
-1100
-1740
-1792
-1808
-1632
-1516
-1312
-1164
-1100
-1004
-848
-848
-864
-832
-940
-1136
-1360
-2624
-2928
-3020
-2944
-2864
-2704
-2396
-2064
-1772
-1392
-956
-672
-412
-80
96
192
224
84
224
228
372
368
384
484
544
528
564
644
608
624
708
628
404
320
272
224
228
292
224
128
116
32
-28
32
64
48
68
192
196
164
144
276
276
308
336
228
164
160
32
-64
-48
-80
-176
-204
-284
-316
-176
36
176
276
388
388
240
80
-16
-300
-544
-668
-736
-748
-220
-96
16
112
384
452
500
560
512
356
212
0
-432
-288
1028
2864
5312
4656
3904
3152
2356
1712
1012
448
84
-220
-448
-540
-512
-576
-592
-544
-1068
-1212
-1340
-1324
-1436
-1500
-1488
-1564
-1596
-1500
-1456
-1376
-1196
-1040
-988
-908
-768
-892
-848
-816
-896
-1052
-1200
-1308
-1488
-1584
-1548
-1596
-1580
-1468
-1328
-1232
-896
-860
-816
-848
-816
-976
-1292
-1616
-1936
-2380
-2752
-2972
-3164
-3164
-2960
-2672
-1228
-876
-588
-236
52
336
432
388
356
304
148
36
32
-108
-176
-128
-96
-48
48
256
352
420
516
480
352
260
128
-140
-368
-496
-688
-816
-892
-896
-652
-508
-236
-144
-64
68
52
-32
-64
-172
-380
-524
-560
-720
-892
-880
-844
-764
-640
-496
-496
-528
-480
-576
-688
-720
-768
-880
-940
-896
-1388
-1484
-1564
-1456
-1420
-1260
-1020
-860
-668
-400
-316
-240
-172
-176
-288
-380
-1004
-1260
-1424
-1520
-1088
352
2324
4032
4964
5044
4532
3556
2580
1764
1008
256
-1356
-1516
-1596
-1632
-1504
-1500
-1536
-1536
-1612
-1792
-1968
-2028
-2176
-2288
-2304
-2336
-2268
-2224
-2176
-2012
-1856
-1660
-1600
-1584
-1552
-1564
-1696
-1852
-1936
-2108
-2224
-2256
-2396
-2364
-2256
-2032
-1916
-1804
-1644
-1664
-1664
-1648
-1708
-1872
-2060
-2188
-2460
-2732
-3552
-3744
-3644
-3548
-3264
-3040
-2764
-2380
-2112
-1852
-1536
-1328
-1244
-1148
-992
-992
-828
-768
-700
-608
-428
-256
-208
-140
16
-12
-28
16
-32
-192
-288
-348
-848
-956
-992
-896
-832
-704
-624
-604
-540
-400
-412
-412
-336
-364
-448
-492
-752
-892
-844
-736
-720
-668
-588
-576
-652
-656
-588
-652
-704
-688
-732
-812
-1068
-1148
-1184
-1216
-1116
-1148
-1116
-992
-908
-912
-908
-860
-956
-1020
-1020
-1164
-1264
-1200
-1100
-960
-800
-620
-604
-624
-592
-656
-768
-800
-768
-864
-1036
-1216
2912
4160
4960
5348
4928
4084
3140
2068
1124
384
-320
-928
-1324
-1568
-1744
-1792
-1708
-1760
-1628
-1516
-1484
-1584
-1708
-1792
-2012
-2192
-2252
-2396
-2412
-2304
-2192
-2108
-1488
-1356
-1216
-1100
-848
-768
-764
-796
-928
-1184
-1392
-1520
-1728
-1868
-1872
-1872
-1612
-1516
-1424
-1244
-1072
-876
-860
-924
-1004
-1212
-1548
-1916
-2240
-2672
-2988
-3120
-2816
-2528
-2144
-1584
-1056
-540
-44
240
464
852
1040
868
496
276
32
-92
0
4
256
468
704
820
928
1044
980
916
916
820
672
544
452
260
-28
-60
-28
16
224
340
368
452
580
592
644
756
720
644
660
628
340
288
244
336
388
528
576
576
596
688
644
656
724
612
516
468
52
20
52
228
276
340
436
384
320
304
224
96
68
180
224
336
564
464
580
596
688
612
548
564
436
240
-48
-128
720
2516
4480
5968
6532
6192
5376
4308
3284
2388
1680
1008
448
52
-124
-256
-336
-316
-176
-140
-176
-256
-288
-416
-620
-796
-844
-716
-684
-1036
-1232
-1244
-1228
-1104
-924
-668
-524
-352
-268
-224
-268
-300
-256
-396
-512
-572
-704
-876
-956
-972
-1068
-1100
-940
-944
-764
-544
-368
-316
-288
-272
-448
-672
-880
-1232
-1648
-2016
-2300
-2592
-400
-508
68
496
800
1044
1168
1092
992
932
736
576
548
496
416
448
724
756
928
1168
1296
1392
1488
1504
1396
1328
1268
1056
852
736
576
400
164
192
244
324
580
688
788
932
1008
996
1012
1060
960
868
832
692
352
288
244
272
308
432
388
368
388
352
244
224
288
260
308
436
208
96
4
32
-80
-108
16
64
176
384
516
580
692
820
816
800
640
464
388
240
64
576
2148
4064
5428
6068
5936
5152
4112
3172
2336
1536
-124
-304
-400
-432
-268
-140
-112
-112
-124
-284
-480
-640
-896
-1152
-1280
-1420
-1596
-1548
-1436
-1196
-960
-656
-464
-332
-192
-76
-108
-160
-176
-380
-556
-700
-1388
-1452
-1436
-1292
-1244
-1164
-1020
-956
-972
-972
-928
-992
-1040
-1024
-1164
-1312
-2188
-2492
-2512
-2604
-2524
-2480
-2348
-2032
-1744
-1440
-1052
-720
-476
-192
128
288
544
528
500
500
548
640
592
560
612
560
544
576
596
560
580
676
612
592
548
656
628
624
612
500
388
372
228
144
132
84
4
4
116
80
208
372
464
500
564
560
436
340
324
176
64
48
-16
-112
-252
-256
-224
-160
96
164
256
356
324
164
36
-48
-316
-524
-576
-636
-368
-272
-188
-32
128
320
368
400
496
500
404
276
20
-284
256
1908
5648
5188
4480
3856
2948
2180
1568
916
432
144
-108
-304
-364
-304
-336
-352
-796
-1068
-1148
-1228
-1376
-1580
-1696
-1708
-1756
-1724
-1552
-1420
-1280
-1036
-812
-688
-416
-492
-560
-668
-700
-860
-1120
-1340
-1472
-1644
-1724
-1648
-1648
-1564
-1372
-1196
-832
-800
-800
-716
-752
-828
-1088
-1484
-1836
-2220
-2656
-2992
-3148
-3232
-3168
-2892
-1516
-1120
-716
-236
116
400
672
704
644
592
452
240
84
52
-80
-128
4
0
244
404
660
736
800
896
836
772
752
656
452
292
196
-12
-412
-444
-412
-348
-140
16
84
208
420
452
500
580
612
560
512
480
-160
-272
-396
-352
-352
-300
-284
-336
-316
-208
-224
-176
-12
84
128
196
-92
-288
-368
-400
-572
-652
-624
-572
-512
-384
-160
-96
-28
128
180
180
212
36
52
-172
-108
736
2432
4228
5440
5744
5316
4484
3392
2404
1632
896
-608
-748
-796
-764
-656
-496
-496
-524
-560
-752
-1068
-1344
-1584
-1948
-2224
-2336
-2464
-2368
-2220
-1888
-1628
-1344
-1056
-960
-876
-736
-736
-876
-1008
-1168
-1484
-1760
-2428
-2556
-2428
-2252
-2048
-1916
-1728
-1504
-1424
-1356
-1216
-1212
-1312
-1452
-1632
-1996
-3328
-3612
-3792
-3868
-3724
-3504
-3244
-2880
-2400
-2032
-1644
-1212
-928
-764
-572
-428
-496
-556
-604
-508
-432
-316
-256
-284
-240
-124
-128
-124
-44
-76
-112
-76
-556
-700
-764
-688
-748
-812
-780
-816
-896
-896
-812
-816
-784
-640
-640
-624
-524
-640
-508
-512
-396
-444
-508
-512
-620
-768
-848
-864
-992
-1056
-1004
-1052
-1036
-1052
-1036
-972
-860
-672
-640
-636
-576
-688
-896
-1052
-1196
-1456
-1644
-1664
-1408
-1248
-1056
-748
-540
-348
-144
-128
-160
-144
-272
-448
-620
-988
-1292
-720
4564
4724
4544
4048
3172
2212
1380
688
-12
-544
-864
-1168
-1356
-1376
-1360
-1392
-1600
-1744
-1872
-2000
-2044
-2172
-2332
-2428
-2416
-2476
-2476
-2336
-2272
-2156
-1964
-1804
-1596
-1644
-1696
-1648
-1696
-1724
-1856
-2032
-2160
-2220
-2364
-2412
-2320
-2316
-2252
-2108
-1948
-1948
-1904
-1760
-1808
-1904
-2000
-2256
-2588
-2844
-3116
-3440
-3676
-3712
-3740
-3612
-2556
-2348
-1900
-1580
-1168
-988
-848
-688
-672
-684
-668
-668
-736
-752
-684
-700
-476
-416
-336
-252
-124
0
-48
-124
-140
-288
-416
-464
-544
-716
-828
-796
-812
-784
-732
-508
-384
-252
-172
-236
-304
-300
-444
-576
-656
-780
-940
-1024
-1072
-1072
-892
-656
-480
-368
-204
-92
-92
-108
-96
-272
-444
-544
-700
-892
-912
-880
-832
-796
-624
-604
-608
-576
-624
-736
-720
-572
-508
-416
-272
-224
-284
-320
-348
-256
-160
-16
-92
-316
-432
112
1604
3524
5184
6004
5972
5376
1828
1172
640
324
-92
-348
-396
-496
-524
-416
-368
-396
-412
-412
-588
-784
-1392
-1584
-1516
-1452
-1324
-1264
-1148
-956
-860
-752
-556
-444
-416
-348
-272
-320
-688
-816
-908
-988
-972
-960
-1024
-1024
-956
-992
-992
-880
-812
-812
-764
-688
-1040
-1180
-1340
-1404
-1612
-1776
-1984
-2204
-2304
-2240
-2192
-2012
-1664
-1356
-1056
-720
164
228
416
676
804
932
1072
1108
1044
1028
1076
980
916
960
944
900
768
612
740
736
852
788
768
816
800
736
708
740
660
628
708
672
672
688
688
724
772
900
864
816
848
768
640
576
576
468
416
468
292
288
304
452
468
468
500
400
308
336
308
288
336
436
404
384
48
-144
-124
0
132
224
352
548
608
672
772
768
704
704
724
624
160
-96
32
896
2836
4740
6032
6484
6192
5248
4228
3344
2448
1620
1044
756
-560
-656
-656
-480
-268
-32
80
48
-32
-96
-352
-608
-780
-992
-1232
-1372
-1440
-1392
-1180
-880
-656
-416
-144
16
52
80
148
32
-124
-204
-396
-636
-1196
-1244
-1244
-1232
-1024
-940
-800
-640
-556
-544
-524
-444
-556
-720
-864
-1164
-2240
-2396
-2480
-2380
-2204
-1884
-1628
-1312
-912
-572
-316
-48
256
384
496
676
768
788
836
1024
1072
1124
1220
1184
1124
1124
1060
960
900
900
772
708
628
532
672
800
884
880
896
944
852
800
820
772
656
580
564
544
544
528
528
416
368
336
372
352
324
368
500
528
528
532
592
532
416
288
224
96
-44
-92
4
20
-16
-44
16
20
-80
-172
-128
-60
-12
112
212
256
260
308
384
308
276
324
228
176
176
116
-144
-384
3956
5108
5904
6144
5632
4692
3748
2896
2000
1264
720
164
-208
-416
-528
-624
-960
-1020
-1132
-1264
-1376
-1452
-1548
-1676
-1708
-1612
-1584
-1484
-1244
-1040
-876
-668
-396
-460
-428
-336
-448
-608
-736
-976
-1248
-1456
-1516
-1632
-1644
-1516
-1424
-1312
-880
-960
-816
-848
-812
-1008
-1308
-1580
-1932
-2336
-2652
-2828
-2956
-2892
-2608
-2304
-780
-432
-124
208
548
864
932
944
932
832
628
480
400
240
144
176
116
144
196
404
528
660
852
868
868
916
852
720
608
548
356
212
-144
-272
-128
20
192
240
292
416
384
384
480
480
388
340
320
148
-188
-252
-288
-332
-224
-172
-220
-224
-188
-256
-252
-112
-16
16
68
112
-188
-336
-476
-460
-428
-304
-204
-204
-140
-12
-28
-28
36
32
-12
48
-28
-284
-252
436
2036
3920
5412
6068
5760
4900
3888
2752
1776
1044
368
-176
-908
-988
-764
-636
-364
-272
-236
-204
-316
-576
-848
-1100
-1436
-1708
-1840
-1984
-1760
-1644
-1468
-1200
-876
-524
-364
-224
-64
-64
-204
-368
-588
-960
-1296
-1520
-2172
-2144
-2032
-1756
-1516
-1260
-940
-768
-620
-444
-428
-512
-636
-844
-1248
-1724
-3292
-3536
-3488
-3312
-2992
-2620
-2124
-1532
-1068
-604
-80
256
516
740
852
804
416
272
148
48
112
128
80
116
240
224
256
404
436
480
592
628
388
304
212
260
212
228
160
36
-12
-12
-140
-224
-208
-300
-304
-224
-160
-172
-128
36
80
64
112
32
-124
-252
-348
-544
-700
-752
-896
-988
-1072
-1104
-844
-688
-412
-332
-300
-224
-300
-448
-572
-720
-912
-988
-896
-908
-624
-576
-524
-444
-336
-224
-240
-256
-268
-496
-860
-864
100
1828
3572
4880
3364
2532
1760
1232
528
0
-396
-796
-1056
-1136
-1276
-1296
-1264
-1280
-1372
-1452
-2160
-2412
-2428
-2384
-2368
-2364
-2288
-2156
-2080
-1964
-1760
-1680
-1612
-1500
-1436
-1484
-1788
-1888
-1964
-2044
-2000
-2016
-2064
-2044
-1996
-2016
-1996
-1856
-1840
-1804
-1724
-1680
-1868
-1980
-2124
-2176
-2320
-2428
-2704
-3004
-3212
-3372
-3484
-3468
-3280
-3120
-2848
-2448
-1488
-1328
-1148
-864
-732
-624
-492
-528
-528
-480
-480
-540
-512
-396
-416
-400
144
-156
-492
-608
-544
-560
-540
-460
-480
-528
-480
-464
-540
-592
-556
-620
-716
-752
-736
-688
-572
-432
-476
-512
-464
-512
-572
-560
-560
-636
-672
-636
-848
-892
-896
-768
-780
-764
-752
-876
-988
-1024
-1184
-1312
-1292
-1232
-1228
-1164
-1104
-1212
-1132
-1040
-1036
-1088
-1068
-976
-988
-940
-800
-828
-848
-828
-832
-908
-880
-860
-876
-1008
-1024
-496
996
2916
4500
5252
5188
4528
3408
2320
1392
544
-1372
-1564
-1664
-1596
-1488
-1276
-1164
-1136
-1100
-1168
-1376
-1632
-1808
-2124
-2380
-2512
-2748
-2684
-2524
-2240
-2028
-1804
-1536
-1408
-1340
-1216
-1196
-1328
-1500
-1616
-1884
-2096
-2592
-2700
-2512
-2400
-2144
-1996
-1836
-1600
-1520
-1484
-1404
-1376
-1488
-1648
-1808
-2172
-3420
-3660
-3788
-3808
-3692
-3372
-3084
-2700
-2176
-1776
-1388
-956
-624
-460
-332
-204
-384
-448
-492
-352
-288
-144
32
80
180
388
436
496
576
592
516
500
116
-44
-12
80
100
64
84
100
48
52
160
176
240
384
464
484
580
548
528
468
532
468
356
320
224
68
-12
4
-44
-28
96
160
288
272
240
292
308
352
244
196
228
224
132
48
4
-128
-224
-224
-384
-268
-64
276
516
724
960
992
976
980
848
640
484
400
180
-76
1360
2884
4528
5764
6432
6160
5408
4548
3524
2640
1936
1268
640
196
-76
-320
-464
-480
-496
-512
-416
-412
-544
-668
-732
-908
-1008
-1024
-1084
-1136
-1100
-988
-768
-704
-652
-460
-320
-176
-172
-252
-304
-336
-524
-684
-732
-844
-960
-960
-1040
-1020
-912
-716
-624
-540
-416
-412
-508
-624
-732
-1008
-1292
-1520
-1900
-2188
-2400
-2352
-1980
-1660
-1100
-672
-272
164
480
704
916
1088
1060
1060
1120
1028
852
848
868
916
1012
1152
1140
1168
1252
1204
1140
1152
1124
1012
944
944
612
564
532
660
688
772
820
756
724
804
740
704
740
720
640
624
548
464
548
688
756
740
804
820
752
708
736
580
448
404
304
176
180
260
372
468
692
704
704
720
596
356
196
196
128
144
292
368
496
500
484
608
720
896
880
832
672
432
720
2116
4032
5508
6336
6356
2900
2160
1524
1136
596
228
32
-172
-240
-160
-96
-80
-12
80
-12
-144
-1056
-1344
-1372
-1408
-1404
-1408
-1360
-1184
-1088
-944
-704
-512
-400
-268
-92
-92
-316
-428
-556
-688
-716
-800
-960
-1056
-1072
-1148
-1164
-1068
-1020
-1004
-908
-768
-912
-1024
-1168
-1216
-1404
-1564
-1820
-2156
-2384
-2476
-2576
-2572
-2348
-2080
-1788
-1392
-176
4
292
628
820
960
1088
1088
976
880
848
704
608
628
560
500
496
404
564
596
768
756
720
736
640
496
420
384
256
176
196
96
80
100
160
228
340
480
464
468
544
500
416
388
368
288
228
256
4
-32
-76
32
0
4
64
-12
-44
36
32
36
84
64
-60
-124
-432
-496
-332
-108
112
244
384
512
480
452
496
372
272
240
160
-12
-192
1024
2628
4128
5600
6068
5684
4948
3988
2992
2144
1488
820
308
-16
-320
-764
-784
-816
-736
-700
-624
-720
-848
-940
-1100
-1168
-1100
-1164
-1568
-1808
-1824
-1484
-1312
-1072
-732
-476
-284
-60
-64
-92
-140
-304
-604
-864
-1052
-1328
-1532
-1760
-1792
-1564
-1404
-1148
-1036
-908
-736
-748
-796
-816
-972
-1280
-1616
-1936
-2300
-2576
-2796
-2848
-2860
-2736
-2428
-1936
-1472
-1008
-544
-48
352
608
816
1012
1040
932
800
736
564
336
164
128
68
0
0
128
244
308
404
544
644
672
704
660
544
416
340
320
164
52
32
-64
-140
-92
-64
-108
-76
148
116
272
452
544
512
464
400
196
20
-60
-268
-416
-464
-496
-576
148
4
352
516
592
608
452
160
-172
-416
-736
-928
-908
-860
-796
-592
-108
-32
176
448
576
660
768
672
320
52
560
1952
3632
4996
5520
5204
1968
1216
848
416
144
-160
-352
-380
-380
-396
-304
-172
-192
-268
-316
-576
-1676
-1888
-2032
-2076
-2048
-1888
-1792
-1632
-1356
-1148
-988
-764
-572
-524
-492
-416
-1024
-1212
-1372
-1404
-1564
-1664
-1680
-1772
-1804
-1708
-1644
-1600
-1468
-1340
-1308
-1244
-1440
-1712
-1824
-1952
-2240
-2608
-2976
-3248
-3516
-3616
-3484
-3280
-3004
-2572
-2092
-1676
-384
-224
-92
-16
148
128
-16
-140
-220
-412
-524
-524
-592
-576
-460
-352
-44
32
80
208
260
336
256
84
-16
-204
-460
-636
-672
-816
-896
-864
-768
-700
-588
-336
-192
-64
64
0
-80
-124
-240
-460
-652
-736
-924
-1056
-1260
-1344
-1168
-1084
-924
-908
-876
-752
-748
-684
-592
-560
-636
-684
-716
-892
-1392
-1420
-1356
-1228
-988
-720
-608
-508
-368
-384
-428
-412
-464
-576
-636
-652
-924
228
1760
3360
4736
5376
5088
4164
3120
2176
1184
356
-236
-768
-1212
-1468
-1584
-1584
-1436
-1264
-1248
-1292
-1372
-1536
-1820
-2076
-2240
-2460
-2588
-2556
-2512
-2480
-1932
-1772
-1616
-1472
-1196
-1116
-1120
-1136
-1280
-1568
-1824
-2016
-2304
-2524
-2572
-2620
-2336
-2224
-2076
-1856
-1628
-1360
-1312
-1328
-1324
-1456
-1756
-2108
-2448
-2924
-3372
-3664
-4060
-3868
-3548
-3040
-2540
-1984
-1392
-988
-656
-368
-256
-288
-336
-384
-576
-748
-1024
-1084
-896
-700
-464
-332
-172
32
52
100
208
212
112
20
-48
-272
-832
-924
-944
-944
-780
-668
-636
-544
-380
-336
-288
-160
-160
-192
-160
-204
-652
-736
-816
-752
-736
-652
-620
-620
-576
-496
-528
-524
-432
-508
-556
-572
-1116
-1200
-1216
-1100
-1084
-1056
-972
-1024
-1104
-1116
-1136
-1260
-1308
-1196
-1104
-944
-540
-592
-432
-412
-316
-380
-428
-400
-512
-608
-736
-1024
-908
352
2272
3748
4548
3812
3072
2372
1664
1108
512
20
-252
-512
-688
-720
-720
-784
-828
-816
-1516
-1708
-1872
-1856
-1948
-1932
-1836
-1824
-1744
-1520
-1404
-1228
-992
-828
-736
-636
-748
-912
-912
-880
-960
-1088
-1180
-1260
-1388
-1452
-1404
-1436
-1408
-1260
-1148
-1072
-800
-828
-864
-940
-940
-1152
-1420
-1664
-1996
-2368
-2620
-2716
-2780
-2672
-2368
-2048
-480
-160
128
400
704
928
900
820
788
672
500
404
368
244
208
292
468
548
640
880
976
1072
1184
1140
1104
1120
960
816
736
640
468
356
180
116
260
464
640
736
864
1012
996
1008
1108
1012
928
884
756
580
164
144
148
176
356
416
496
644
736
724
740
788
672
576
592
544
336
260
164
160
112
100
-44
-92
16
96
192
400
640
736
832
948
692
608
544
608
484
260
48
324
1696
3648
5248
6144
6228
5600
4596
3620
948
464
244
164
84
4
20
84
16
-44
-48
-224
-400
-528
-716
-928
-1216
-1180
-1104
-1008
-716
-544
-384
-160
-12
36
96
180
96
4
-64
-268
-1040
-1168
-1276
-1244
-1152
-960
-908
-828
-672
-576
-544
-476
-384
-448
-524
-544
-1424
-1712
-1964
-2076
-2316
-2460
-2428
-2416
-2256
-1948
-1644
-1328
-940
-496
-236
16
436
388
516
672
784
788
852
980
964
992
1104
1104
1076
1124
1152
1072
980
932
900
868
964
976
884
836
832
676
592
608
544
500
560
580
544
528
516
640
688
800
784
676
660
672
548
452
480
400
356
404
224
176
164
292
276
292
404
432
436
516
512
416
340
336
144
-32
-272
-320
-96
32
244
288
320
404
340
308
356
340
240
180
100
-224
3664
4992
5876
6128
5844
5024
3972
3024
2260
1456
804
340
-48
-368
-512
-512
-544
-588
-652
-608
-684
-748
-876
-1120
-1324
-1392
-1552
-1600
-1516
-1452
-1404
-1260
-816
-812
-640
-428
-364
-348
-352
-492
-748
-960
-1100
-1340
-1520
-1548
-1580
-1584
-1132
-1136
-860
-752
-544
-528
-592
-672
-896
-1280
-1680
-2028
-2448
-2796
-2956
-3084
-2352
-2016
-1632
-1200
-656
-92
256
512
740
800
708
612
544
320
164
128
-60
-44
32
272
436
624
820
868
932
1060
1312
1328
960
672
324
96
-236
-316
-128
16
164
244
340
528
548
564
640
608
516
484
480
276
-128
-224
-300
-336
-240
-156
-156
-128
-32
-64
-60
36
64
16
52
180
132
36
-76
-60
-128
-220
-384
-576
-624
-508
-464
-364
-144
0
112
260
368
320
388
500
400
116
-92
240
1536
3300
4804
5504
5408
4788
3808
2800
340
-124
-220
-348
-300
-304
-268
-140
-96
-124
-156
-224
-508
-796
-1040
-1392
-1984
-2000
-1936
-1792
-1552
-1244
-1068
-892
-620
-448
-396
-348
-364
-540
-720
-864
-1804
-1920
-1964
-1820
-1744
-1616
-1392
-1280
-1152
-944
-844
-752
-620
-576
-672
-796
-1900
-2320
-2544
-2704
-2892
-3052
-3072
-2912
-2748
-2444
-1964
-1568
-1152
-720
-352
-108
340
340
308
260
336
276
176
160
192
128
132
256
276
352
512
592
676
672
628
660
612
612
512
336
228
132
-60
-172
-156
-236
-268
-172
-44
-12
80
276
352
388
480
400
288
228
144
-64
-236
-304
-460
-540
-656
-704
-512
-432
-220
-128
-16
176
192
176
148
0
-252
-508
-688
-956
-992
-864
-716
-544
-284
-32
36
84
196
164
148
208
144
-124
-496
-432
4432
5008
4992
4688
3828
2948
2080
1236
564
116
-348
-668
-816
-928
-1008
-912
-768
-768
-908
-1084
-1244
-1504
-1824
-2092
-2208
-2304
-2396
-2384
-2236
-2076
-1948
-1772
-1516
-1308
-1200
-1120
-1052
-1024
-1164
-1312
-1472
-1628
-1884
-2092
-2236
-2224
-2240
-2188
-2096
-1900
-1900
-1804
-1584
-1436
-1356
-1276
-1180
-1292
-1472
-1664
-2044
-2444
-2784
-3148
-3948
-3888
-3776
-3472
-3056
-2524
-2080
-1680
-1296
-992
-832
-704
-560
-624
-688
-700
-528
-764
-384
-156
80
112
96
112
-32
-220
-336
-464
-656
-784
-784
-880
-748
-704
-636
-524
-348
-176
-192
-208
-172
-300
-428
-512
-636
-800
-876
-848
-956
-940
-896
-716
-636
-508
-428
-448
-476
-464
-624
-780
-860
-992
-1164
-1260
-1228
-1232
-1084
-912
-832
-796
-732
-768
-908
-976
-924
-924
-892
-768
-700
-720
-816
-876
-880
-896
-752
-768
-832
-976
-1152
-768
692
2644
4164
5028
5108
4388
784
132
-428
-796
-1164
-1328
-1500
-1516
-1420
-1312
-1292
-1264
-1196
-1340
-1532
-1692
-2656
-2816
-2860
-2716
-2608
-2448
-2188
-2032
-1852
-1600
-1376
-1244
-1116
-976
-1040
-1148
-1968
-2272
-2316
-2348
-2336
-2384
-2368
-2236
-2172
-2064
-1872
-1724
-1644
-1548
-1404
-1440
-1952
-2176
-2428
-2684
-2908
-3184
-3500
-3696
-3708
-3680
-3520
-3136
-2732
-2332
-1856
-1376
-524
-476
-480
-396
-368
-352
-432
-592
-700
-684
-764
-768
-620
-508
-412
-252
4
-44
48
176
132
52
20
-80
-288
-448
-512
-652
-688
-588
-524
-492
-112
-140
100
176
400
436
436
480
388
196
20
-96
-304
-460
-480
-576
-352
-272
-188
-64
80
256
228
176
192
96
-16
-28
-32
-112
-156
-128
-524
-608
-672
-560
-496
-332
-92
64
228
420
452
484
560
548
468
420
-12
-332
-496
-288
852
2736
4688
6032
6384
5984
5200
4112
3104
2292
1508
788
-508
-576
-560
-540
-320
-240
-208
-172
-220
-368
-528
-668
-924
-1136
-1216
-1344
-1344
-1260
-1132
-940
-716
-460
-332
-208
-28
-12
-80
-144
-220
-432
-624
-748
-1308
-1356
-1344
-1152
-1024
-844
-640
-604
-544
-444
-432
-496
-560
-732
-1024
-1344
-2560
-2816
-2812
-2688
-2476
-2208
-1852
-1404
-1036
-656
-224
48
260
500
644
688
772
768
772
768
896
928
900
928
980
928
928
1008
944
932
992
996
836
784
740
820
852
960
960
868
852
868
756
692
724
644
624
704
576
548
608
784
836
864
948
912
820
772
752
596
544
560
448
372
112
4
144
196
400
480
580
756
752
676
660
564
352
148
64
-76
228
336
436
564
724
896
880
868
928
836
772
724
480
52
160
1440
6228
6080
5508
4928
3984
3172
2388
1636
1024
752
528
164
-172
-364
-464
-464
-448
-576
-528
-492
-544
-656
-748
-780
-924
-1008
-960
-988
-956
-812
-704
-636
-240
-224
-224
-268
-176
-240
-384
-492
-624
-828
-956
-988
-1084
-972
-748
-608
-1120
-1104
-1052
-876
-748
-624
-656
-832
-1020
-1232
-1632
-1996
-2208
-2428
-2508
-2412
-1552
-1244
-880
-428
-16
336
720
916
1024
1152
1200
1136
1076
1072
928
804
452
340
484
532
704
724
740
820
800
756
820
804
692
608
596
452
228
180
196
240
352
464
452
480
596
580
576
656
640
576
516
500
128
36
-12
96
132
240
272
180
132
176
100
96
196
256
260
324
128
-12
-28
4
-96
-140
-92
-48
-80
-32
68
16
0
84
112
96
244
244
176
4
244
1280
3108
4948
6116
6324
5796
4868
3700
2628
1776
976
-636
-768
-812
-732
-556
-272
-160
-60
52
20
-156
-380
-624
-1024
-1372
-1580
-2048
-2012
-1872
-1580
-1344
-1104
-800
-640
-480
-304
-256
-332
-412
-476
-704
-928
-1680
-1868
-1776
-1660
-1488
-1392
-1248
-1036
-960
-896
-780
-768
-832
-908
-1024
-1328
-2544
-2784
-2956
-3020
-2896
-2716
-2508
-2192
-1792
-1468
-1088
-656
-352
-128
96
276
256
212
192
292
324
448
500
480
500
592
544
548
644
656
644
688
388
292
288
372
320
288
308
256
144
84
116
48
32
80
48
68
208
100
272
304
480
448
388
384
276
148
64
32
-124
-204
-192
-304
-384
-348
-256
-108
100
320
324
288
304
164
-48
-252
-400
-592
-656
-576
-252
-144
-28
228
356
496
656
628
580
576
384
-12
-240
276
1744
3492
4804
4000
3300
2676
1952
1284
768
400
32
-204
-236
-336
-364
-300
-300
-396
-1104
-1328
-1548
-1760
-1852
-1984
-2064
-2012
-1888
-1804
-1632
-1344
-1152
-944
-688
-540
-464
-560
-704
-768
-924
-1020
-1232
-1472
-1612
-1708
-1820
-1824
-1712
-1696
-1616
-1420
-1120
-1100
-1072
-972
-1072
-1260
-1472
-1872
-2256
-2576
-2876
-3132
-3216
-3100
-2956
-2668
-1216
-992
-556
-252
84
212
288
368
272
176
132
32
-108
-160
-128
-204
-48
0
96
192
416
544
544
532
560
404
244
128
-64
-300
-444
-508
-816
-812
-764
-572
-400
-192
-80
-60
16
128
80
20
32
-128
-268
-348
-876
-956
-940
-800
-800
-784
-704
-704
-768
-764
-704
-704
-656
-524
-556
-620
-1008
-1248
-1244
-1292
-1164
-1088
-956
-736
-640
-560
-400
-316
-336
-336
-284
-368
-860
-1148
-1356
-1104
228
2160
3764
4804
5088
4464
3524
2580
1684
852
196
-252
-1264
-1308
-1312
-1152
-1116
-1084
-1120
-1356
-1628
-1872
-2220
-2480
-2604
-2704
-2800
-2780
-2284
-2192
-1932
-1628
-1388
-1212
-1036
-992
-1084
-1232
-1360
-1644
-1900
-2064
-2268
-2448
-2476
-2384
-2240
-2080
-1756
-1596
-1468
-1328
-1280
-1360
-1488
-1612
-1920
-2272
-2576
-2960
-3952
-4016
-3984
-3788
-3484
-3008
-2620
-2192
-1724
-1340
-1056
-800
-572
-544
-556
-496
-764
-812
-812
-624
-544
-432
-268
-236
-192
-80
-44
-92
-108
-80
-208
-336
-828
-992
-896
-828
-736
-736
-588
-316
-208
-480
-620
-700
-796
-764
-640
-624
-492
-512
-528
-540
-508
-480
-592
-700
-732
-892
-992
-1020
-1036
-1100
-1100
-944
-892
-944
-992
-972
-992
-1024
-988
-816
-700
-640
-592
-512
-576
-428
-476
-892
-1296
-1580
-1660
-1580
-1312
-1120
-912
-716
-492
-416
-320
-268
-208
-288
-400
-556
-828
-1200
-988
436
2256
3732
4612
4752
4064
3140
2288
1444
640
-16
-464
-924
-1388
-1376
-1340
-1308
-1200
-1244
-1436
-1644
-1808
-2108
-2368
-2496
-2604
-2668
-2576
-2396
-976
-1020
-928
-752
-780
-972
-1196
-1424
-1776
-2032
-2140
-2268
-2272
-2128
-1968
-1840
-1104
-992
-880
-812
-624
-640
-796
-972
-1276
-1728
-2188
-2556
-2972
-3276
-3424
-3452
-2412
-2012
-1600
-1084
-540
20
352
580
740
756
628
480
400
180
20
-16
-172
-108
4
276
432
592
832
900
976
1088
1092
1012
928
884
660
468
-64
-220
-80
4
176
256
384
580
644
736
896
964
964
1008
1056
928
372
240
144
68
112
132
84
96
224
224
256
368
368
356
372
432
228
224
240
368
420
464
420
276
160
52
-160
-272
-192
-108
-16
148
512
500
628
820
900
980
1076
1028
816
468
288
800
2324
4196
5588
6180
3696
2804
2304
1744
1280
756
384
208
100
16
36
132
96
68
84
-64
-908
-1100
-1248
-1312
-1296
-1164
-1120
-1024
-832
-668
-540
-348
-96
-32
32
116
-368
-556
-716
-720
-860
-924
-912
-1036
-1084
-992
-928
-892
-764
-624
-588
-496
-588
-764
-784
-864
-1068
-1408
-1756
-2032
-2412
-2640
-2656
-2640
-2464
-2064
-1632
-1232
244
468
672
832
1072
1156
1108
1060
1024
848
708
676
560
496
512
548
772
820
864
1028
1156
1332
1360
1280
1236
1236
1092
964
928
736
612
560
256
272
340
548
612
676
836
900
896
948
1028
992
976
1028
916
852
512
356
468
448
532
468
404
432
356
260
276
356
356
404
544
500
244
112
4
-28
36
224
272
356
544
592
592
660
692
640
624
660
224
-32
-204
260
1652
3600
5360
6288
6356
5780
4800
3776
2916
2116
1360
740
-400
-540
-444
-304
-192
-172
-160
-160
-332
-508
-608
-832
-1040
-1152
-1248
-1388
-1228
-1120
-992
-860
-544
-384
-304
-236
-144
-224
-304
-352
-576
-780
-896
-1056
-1472
-1472
-1440
-1248
-1072
-848
-716
-624
-524
-428
-508
-588
-640
-876
-1132
-1376
-2620
-2796
-2828
-2672
-2492
-2220
-1820
-1472
-1148
-764
-400
-192
16
256
320
368
384
292
452
500
640
660
672
788
804
772
804
820
724
672
720
624
468
432
404
400
452
548
496
496
560
496
404
404
368
240
164
208
160
160
176
340
404
516
612
560
528
576
496
404
368
256
64
-80
-480
-544
-384
-160
64
164
260
308
228
132
68
-176
-352
-368
-352
-368
-92
-60
0
48
256
352
356
420
496
384
160
-64
164
1472
3316
4820
4336
3492
2656
2016
1300
800
288
-128
-352
-464
-576
-560
-432
-432
-428
-384
-1100
-1328
-1500
-1548
-1712
-1820
-1804
-1820
-1760
-1580
-1392
-1264
-1072
-780
-640
-528
-432
-608
-592
-720
-812
-1052
-1248
-1388
-1600
-1712
-1676
-1616
-1568
-1440
-1228
-1100
-688
-684
-684
-716
-764
-944
-1340
-1788
-2160
-2640
-2988
-3136
-3184
-3116
-2848
-2412
-832
-480
-160
256
564
848
992
964
864
788
544
308
180
20
-140
-176
20
64
272
532
704
852
1044
1136
1104
1072
1076
896
688
544
308
68
-316
-320
-272
-208
36
132
256
432
528
532
576
644
544
436
404
276
-252
-348
-428
-400
-380
-284
-300
-288
-204
-160
-140
-28
176
224
228
260
-44
-28
-80
-448
-880
-816
-576
-444
-284
-44
112
196
276
404
368
340
-252
-604
-300
660
2516
4164
5300
5668
5136
4228
3300
2400
1524
868
400
-76
-704
-720
-700
-656
-528
-512
-652
-828
-976
-1292
-1580
-1740
-1900
-2060
-2112
-2044
-1740
-1644
-1536
-1308
-1084
-864
-784
-832
-912
-976
-1228
-1504
-1692
-1932
-2140
-2224
-2220
-2172
-1952
-1680
-1504
-1356
-1180
-1120
-1164
-1200
-1260
-1504
-1788
-2048
-2464
-2880
-3728
-3824
-3564
-3356
-2892
-2508
-2092
-1644
-1292
-1056
-832
-624
-592
-592
-540
-608
-640
-668
-652
-576
-460
-288
-284
-252
-144
-112
-156
-124
-76
-144
-176
-144
-460
-544
-588
-508
-556
-528
-460
-512
-556
-496
-544
-604
-560
-528
-560
-556
-608
-704
-636
-528
-496
-528
-540
-540
-652
-732
-748
-864
-960
-988
-1056
-1168
-1248
-1232
-1148
-1024
-748
-620
-624
-636
-656
-812
-1008
-1132
-1324
-1392
-1308
-1196
-848
-780
-720
-556
-428
-272
-272
-336
-380
-464
-828
-1116
-608
832
2640
4192
3572
2756
1988
1444
720
384
0
-524
-1104
-1420
-1500
-1580
-1564
-1440
-1472
-1484
-2048
-2336
-2368
-2492
-2460
-2496
-2496
-2380
-2272
-2176
-2016
-1792
-1664
-1536
-1340
-1292
-1404
-1532
-1648
-1744
-1872
-1920
-2112
-2256
-2268
-2320
-2352
-2268
-2144
-2096
-2012
-1840
-1788
-1836
-1900
-1868
-2032
-2256
-2524
-2956
-3344
-3596
-3808
-3916
-3804
-3568
-3308
-2896
-1420
-1200
-832
-492
-256
-204
-204
-220
-384
-524
-572
-704
-796
-768
-716
-688
-332
-256
-160
-80
116
224
192
164
96
-124
-332
-432
-668
-828
-892
-972
-912
-828
-764
-556
-368
-140
-28
-32
4
-16
-172
-336
-448
-700
-876
-912
-1120
-1104
-1024
-800
-688
-544
-348
-288
-240
-172
-176
-316
-432
-460
-576
-688
-992
-1132
-1008
-988
-880
-912
-880
-716
-608
-412
-144
64
144
208
272
176
-128
-220
-272
-348
-508
-640
-268
1216
3248
4880
5892
6112
5504
4500
3540
2720
196
-172
-400
-412
-464
-412
-352
-384
-384
-364
-524
-700
-800
-972
-1168
-1296
-1452
-1468
-1292
-1056
-896
-736
-544
-428
-416
-400
-320
-396
-480
-496
-624
-800
-1152
-1212
-1216
-1196
-976
-908
-812
-672
-588
-592
-572
-496
-608
-716
-780
-956
-1900
-2112
-2300
-2368
-2412
-2304
-2188
-1980
-1616
-1280
-976
-652
-272
-80
96
404
576
608
612
676
736
708
740
852
960
980
1040
1136
1268
1264
1248
1220
1252
1120
1040
944
928
768
656
560
576
512
420
420
548
596
596
640
772
836
720
688
756
720
704
784
724
672
676
656
548
484
512
432
404
400
420
484
644
784
736
692
720
592
468
436
384
324
352
480
-12
-252
-12
304
532
644
720
784
708
660
692
580
500
500
480
400
96
1024
2532
4116
5840
6592
6420
5732
4736
3620
2640
1860
1108
512
128
-192
-444
-384
-332
-188
-76
52
-28
-172
-304
-496
-752
-956
-1056
-1228
-1324
-1244
-992
-864
-704
-428
-256
-108
48
-12
-80
-108
-240
-464
-636
-748
-944
-1068
-1308
-1388
-1232
-1068
-912
-860
-764
-624
-656
-684
-684
-832
-1052
-1244
-1532
-1872
-1932
-2064
-2380
-2304
-1856
-1360
-924
-448
36
336
596
896
1040
1044
1092
1120
692
576
496
580
640
768
816
816
880
1008
1008
1040
1168
1184
1168
1204
756
644
580
624
496
400
400
356
272
260
320
292
336
480
484
548
704
612
756
756
852
756
640
580
384
176
80
-48
-236
-348
-304
-364
20
160
324
496
692
848
804
692
576
288
36
-96
-204
-288
-288
-160
48
100
176
388
512
660
804
736
500
368
756
2192
3988
5328
5844
5572
2096
1316
836
512
144
-160
-304
-316
-352
-300
-96
-32
20
288
340
16
-1696
-1916
-2016
-2060
-1884
-1744
-1600
-1388
-1100
-924
-720
-412
-272
-160
-60
-64
-880
-1152
-1388
-1468
-1564
-1536
-1536
-1520
-1404
-1260
-1164
-1036
-812
-748
-684
-592
-1164
-1424
-1648
-1776
-2108
-2444
-2652
-2892
-3052
-2972
-2780
-2556
-2188
-1692
-1280
-860
100
100
292
340
416
308
212
180
64
-44
-28
16
32
116
292
352
752
800
864
896
960
1024
896
708
580
304
64
-48
-144
-288
-332
-252
-16
64
176
432
580
740
864
804
752
720
516
352
240
80
-112
-220
-400
-448
-316
-140
-32
32
148
244
256
304
416
384
336
320
208
4
-592
-652
-636
-572
-288
-96
52
256
368
352
356
416
340
272
288
240
-396
384
1760
3348
4896
5764
5600
4900
4016
3072
2144
1392
832
260
-144
-368
-768
-748
-704
-556
-560
-592
-640
-876
-1120
-1296
-1532
-1744
-1840
-1808
-1852
-1824
-1372
-1328
-1024
-796
-540
-416
-336
-256
-364
-528
-640
-832
-1100
-1292
-1360
-1500
-1536
-1504
-1436
-1328
-1100
-928
-892
-860
-812
-924
-1084
-1232
-1500
-1840
-2160
-2416
-3008
-2924
-2736
-2368
-1936
-1424
-976
-636
-316
16
144
240
368
356
272
224
-48
-140
-64
116
196
308
480
564
580
656
768
740
704
736
672
544
36
-188
-112
-172
-64
-108
-144
-96
-76
-124
-140
-80
-128
-140
-48
-80
-224
-272
-304
-288
-252
-144
-176
-204
-172
-208
-336
-384
-396
-512
-604
-560
-608
-592
-560
-412
-428
-448
-460
-652
-848
-928
-1008
-1036
-976
-828
-768
-684
-556
-624
-508
-364
-304
-352
-396
-492
-864
-876
224
1968
3588
4772
5108
4564
1328
688
132
-320
-624
-860
-1052
-1120
-1056
-1100
-1100
-1036
-1104
-1264
-1436
-1676
-2684
-2832
-2908
-2796
-2656
-2416
-2236
-2080
-1868
-1600
-1484
-1356
-1168
-1152
-1196
-1232
-1756
-1744
-1808
-2192
-2636
-2668
-2528
-2368
-2240
-2064
-1836
-1724
-1600
-1436
-1408
-1436
-1980
-2348
-2464
-2720
-2944
-3280
-3564
-3708
-3776
-3776
-3584
-3232
-2924
-2528
-2032
-1632
-652
-544
-460
-380
-316
-128
-28
-224
-512
-736
-912
-924
-780
-672
-512
-256
112
148
176
304
228
116
48
-220
-476
-656
-864
-1088
-1196
-1164
-1216
-1184
-716
-672
-416
-208
4
80
116
164
4
-176
-300
-512
-800
-1008
-1104
-1264
-1216
-1132
-1008
-892
-652
-512
-512
-496
-444
-524
-604
-592
-684
-832
-956
-1068
-1584
-1664
-1680
-1504
-1292
-944
-684
-512
-348
-188
-192
-220
-204
-336
-508
-608
-1516
-1692
-1196
164
2148
3924
5120
5364
4820
3956
3044
2052
1188
500
-192
-700
-1568
-1712
-1536
-1488
-1344
-1376
-1468
-1500
-1648
-1884
-2044
-2140
-2300
-2384
-2336
-2364
-1968
-1868
-1744
-1612
-1424
-1232
-1260
-1312
-1340
-1484
-1676
-1788
-1888
-2048
-2140
-2096
-2060
-2044
-1968
-1772
-1660
-1580
-1484
-1564
-1676
-1740
-1932
-2192
-2412
-2652
-2944
-3196
-3596
-3584
-3308
-2956
-2512
-2140
-1712
-1248
-988
-752
-492
-416
-384
-288
-268
-336
-268
-204
-96
0
244
388
452
516
612
548
512
532
400
288
244
176
-156
-208
-220
-76
68
260
340
496
752
864
532
340
320
256
228
288
176
100
144
256
244
224
276
240
144
112
164
100
112
208
164
160
20
-140
0
20
192
228
260
340
276
144
80
36
-128
20
116
48
112
228
368
532
720
912
884
868
880
768
564
356
48
-272
260
1936
6100
5744
5060
4420
3492
2720
2096
1408
848
480
180
-32
-96
-80
-156
-172
-608
-892
-956
-992
-1072
-1180
-1228
-1196
-1228
-1196
-1024
-908
-800
-620
-428
-316
-124
-172
-224
-332
-348
-444
-624
-736
-780
-924
-1004
-956
-1008
-960
-812
-704
-496
-476
-464
-364
-384
-412
-620
-944
-1308
-1680
-2124
-2464
-2592
-2716
-2656
-2396
-1116
-780
-428
48
372
640
896
960
948
1008
980
864
772
788
676
644
688
640
852
948
1140
1172
1200
1296
1232
1188
1188
1108
944
836
800
656
516
512
532
592
772
916
960
992
1060
980
944
980
916
784
672
608
176
128
100
240
340
484
560
512
512
580
516
436
448
432
400
432
548
100
-60
-32
-96
-176
-124
32
148
320
592
708
832
992
1040
960
596
480
368
228
84
-204
132
1600
3504
5088
6052
6208
5540
4612
3748
2896
688
352
96
48
16
96
80
52
100
68
-96
-268
-396
-656
-896
-988
-1040
-1200
-1280
-1264
-1148
-1084
-960
-768
-492
-320
-128
36
212
240
192
100
20
-220
-512
-768
-956
-1152
-1340
-1420
-1340
-1276
-1228
-1148
-960
-812
-720
-652
-544
-528
-732
-908
-1040
-1376
-1728
-2000
-2320
-2608
-2732
-2672
-2604
-2380
-1964
-1584
-112
116
352
544
740
948
932
884
868
736
560
468
436
324
292
388
640
516
756
964
1168
1140
1076
1040
820
624
496
324
116
-28
-44
-144
80
144
240
368
564
768
800
836
928
848
768
720
576
340
164
64
-560
-668
-716
-572
-492
-320
-64
80
240
432
420
420
452
352
132
-48
-380
-460
-348
-188
-108
-64
4
84
64
80
208
212
228
224
0
48
5392
6004
6308
6000
4880
3616
2464
1556
896
256
-220
-464
-704
-812
-752
-668
-428
-428
-464
-416
-512
-624
-860
-1164
-1436
-1612
-1836
-1936
-1856
-1792
-1696
-1500
-828
-704
-560
-332
-268
-224
-224
-384
-672
-944
-1168
-1452
-1660
-1696
-1776
-1772
-1372
-1360
-1072
-944
-688
-636
-672
-732
-940
-1292
-1676
-2044
-2496
-2864
-3024
-3132
-2272
-1920
-1548
-1136
-636
-124
164
388
580
608
516
464
432
260
128
112
-32
-16
52
272
384
528
708
724
740
848
848
740
708
660
484
372
-48
-204
-112
-12
80
84
148
288
308
340
432
432
404
452
496
416
240
176
128
80
132
128
16
-64
-108
-268
-364
-348
-400
-428
-304
-188
-28
-76
-108
-44
-64
-60
-124
-224
-240
-156
-172
-156
-76
-128
-112
-48
-108
-92
-32
64
-112
-224
512
2176
4016
5456
6144
5812
4964
4016
2916
1988
-224
-592
-640
-736
-620
-576
-480
-332
-304
-364
-428
-480
-720
-976
-1168
-1468
-1980
-1984
-1920
-1804
-1568
-1292
-1148
-1020
-768
-400
-204
-448
-640
-896
-1088
-1164
-1740
-1820
-1824
-1680
-1644
-1552
-1408
-1388
-1344
-1244
-1228
-1276
-1296
-1296
-1472
-1680
-2700
-3040
-3136
-3228
-3244
-3244
-3136
-2848
-2656
-2384
-2012
-1664
-1372
-1068
-748
-592
-220
-220
-188
-172
-44
-12
-64
-112
-64
-140
-172
-108
-124
-188
-220
-172
-444
-492
-512
-416
-380
-288
-256
-320
-348
-300
-396
-448
-400
-412
-464
-480
-556
-620
-540
-384
-368
-332
-272
-300
-400
-476
-476
-620
-732
-736
-796
-876
-976
-1120
-972
-940
-748
-684
-608
-496
-512
-656
-780
-864
-1084
-1292
-1372
-1456
-1136
-1004
-860
-684
-524
-336
-348
-364
-348
-432
-608
-748
-876
-1280
-1548
-860
4528
4800
4516
4068
3136
2256
1520
736
96
-352
-764
-1116
-1308
-1360
-1452
-1484
-1932
-2188
-2192
-2224
-2272
-2412
-2492
-2464
-2524
-2512
-2380
-2272
-2176
-2012
-1804
-1724
-1424
-1456
-1500
-1552
-1520
-1584
-1772
-1916
-1996
-2156
-2252
-2236
-2236
-2252
-2172
-2016
-1792
-1792
-1792
-1692
-1696
-1712
-1872
-2192
-2512
-2784
-3152
-3472
-3632
-3744
-3772
-3628
-2476
-2172
-1740
-1260
-924
-656
-444
-352
-428
-508
-540
-700
-800
-796
-832
-860
-544
-460
-348
-252
0
68
112
160
96
-76
-208
-304
-540
-748
-828
-912
-576
-620
-812
-1052
-924
-656
-492
-380
-204
-76
-80
-124
-144
-348
-508
-624
-1232
-1276
-1228
-1036
-944
-860
-672
-576
-544
-444
-400
-476
-540
-544
-700
-828
-1088
-1216
-1116
-1164
-1088
-1152
-1228
-1228
-1292
-1324
-1196
-988
-848
-652
-380
-272
-192
-272
-336
-384
-416
-428
-636
-976
-1180
-672
852
2804
4416
5280
5332
4816
1520
900
352
32
-428
-704
-812
-956
-1020
-972
-1040
-1056
-1040
-1100
-1260
-1404
-1888
-2032
-1968
-1820
-1712
-1632
-1500
-1356
-1308
-1212
-1040
-1004
-960
-892
-880
-944
-1084
-1116
-1132
-1152
-1040
-1052
-1104
-1072
-1056
-1132
-1180
-1120
-1200
-1248
-1212
-1228
-1452
-1552
-1676
-1724
-1836
-1884
-2064
-2220
-2252
-2236
-2204
-2044
-1740
-1520
-1280
-960
-208
-80
68
336
480
612
800
804
836
928
944
880
864
896
784
720
500
368
484
532
624
576
564
640
580
548
596
576
512
516
580
512
516
532
548
564
708
756
708
672
704
592
516
528
480
384
368
384
228
196
176
452
724
756
468
176
4
4
-44
-28
100
208
256
308
132
-28
-44
16
32
84
240
372
416
484
624
580
580
672
672
608
352
100
-144
-16
1296
3172
4976
6260
6532
5956
5056
4100
3076
2180
1524
896
-316
-380
-380
-268
-112
52
20
-60
-92
-256
-524
-764
-944
-1212
-1376
-1388
-1260
-1120
-940
-608
-412
-224
20
84
116
176
100
-80
-256
-412
-688
-908
-1360
-1440
-1280
-1100
-880
-764
-620
-416
-364
-316
-208
-252
-396
-544
